time,temp (°C),alt (m),press (m)
    0.00,    11.06,    490.96,    960.58
    1.01,    10.98,    496.19,    959.97
    2.00,    10.86,    502.47,    959.25
    3.00,    10.77,    508.85,    958.52
    4.00,    10.70,    515.41,    957.76
    5.00,    10.62,    522.12,    956.99
    6.00,    10.55,    528.79,    956.23
    7.00,    10.48,    535.26,    955.48
    8.00,    10.41,    541.62,    954.75
    9.00,    10.35,    547.93,    954.03
    10.00,    10.28,    554.30,    953.30
    11.00,    10.22,    560.64,    952.57
    12.00,    10.15,    567.02,    951.84
    13.00,    10.09,    573.36,    951.12
    14.00,    10.03,    579.66,    950.40
    15.01,    9.97,    585.95,    949.68
    16.00,    9.91,    592.22,    948.96
    17.00,    9.84,    598.47,    948.25
    18.00,    9.78,    604.69,    947.54
    19.00,    9.72,    610.88,    946.83
    20.00,    9.66,    617.00,    946.14
    21.00,    9.61,    623.05,    945.45
    22.00,    9.55,    629.02,    944.77
    23.00,    9.49,    634.92,    944.10
    24.00,    9.43,    640.72,    943.44
    25.00,    9.38,    646.49,    942.78
    26.00,    9.32,    652.25,    942.12
    27.00,    9.27,    658.01,    941.47
    28.00,    9.21,    663.79,    940.82
    29.00,    9.16,    669.62,    940.15
    30.00,    9.10,    675.52,    939.48
    31.00,    9.05,    681.50,    938.81
    32.00,    8.99,    687.57,    938.12
    33.00,    8.93,    693.74,    937.42
    34.00,    8.87,    700.00,    936.71
    35.00,    8.81,    706.37,    935.99
    36.00,    8.75,    712.85,    935.26
    37.00,    8.69,    719.45,    934.51
    38.00,    8.63,    726.16,    933.75
    39.00,    8.57,    732.97,    932.99
    40.00,    8.50,    739.89,    932.21
    41.00,    8.44,    746.92,    931.41
    42.00,    8.37,    754.04,    930.61
    43.00,    8.31,    761.25,    929.80
    44.00,    8.24,    768.55,    928.98
    45.00,    8.17,    775.92,    928.15
    46.00,    8.10,    783.37,    927.31
    47.00,    8.03,    790.86,    926.47
    48.00,    7.96,    798.41,    925.62
    49.00,    7.89,    805.98,    924.78
    50.00,    7.81,    813.57,    923.92
    51.00,    7.74,    821.17,    923.07
    52.00,    7.66,    828.76,    922.22
    53.00,    7.59,    836.35,    921.37
    54.00,    7.51,    843.93,    920.53
    55.00,    7.43,    851.48,    919.68
    56.01,    7.35,    859.01,    918.84
    57.00,    7.28,    866.51,    918.01
    58.00,    7.20,    873.98,    917.17
    59.00,    7.12,    881.41,    916.35
    61.00,    7.05,    888.82,    915.52
    62.00,    6.98,    896.19,    914.70
    63.00,    6.90,    903.52,    913.89
    64.00,    6.83,    910.81,    913.08
    65.00,    6.77,    918.05,    912.27
    66.00,    6.70,    925.25,    911.47
    67.00,    6.63,    932.39,    910.68
    68.00,    6.56,    939.48,    909.89
    69.00,    6.50,    946.49,    909.12
    70.00,    6.43,    953.44,    908.35
    71.00,    6.36,    960.30,    907.59
    72.00,    6.30,    967.07,    906.84
    73.00,    6.24,    973.74,    906.10
    74.00,    6.18,    980.31,    905.38
    75.00,    6.12,    986.77,    904.66
    76.00,    6.06,    993.12,    903.96
    77.00,    6.01,    999.36,    903.28
    78.00,    5.96,    1005.48,    902.60
    79.00,    5.91,    1011.50,    901.94
    80.00,    5.87,    1017.40,    901.29
    81.00,    5.82,    1023.22,    900.65
    82.00,    5.78,    1028.94,    900.02
    83.00,    5.74,    1034.57,    899.40
    84.00,    5.71,    1040.14,    898.79
    85.00,    5.67,    1045.64,    898.18
    86.00,    5.63,    1051.09,    897.59
    87.00,    5.59,    1056.49,    897.00
    88.00,    5.55,    1061.84,    896.41
    89.00,    5.51,    1067.16,    895.83
    90.00,    5.47,    1072.45,    895.25
    91.00,    5.43,    1077.71,    894.67
    92.00,    5.39,    1082.93,    894.10
    93.00,    5.34,    1088.12,    893.53
    94.00,    5.30,    1093.27,    892.97
    95.00,    5.25,    1098.38,    892.41
    96.00,    5.21,    1103.44,    891.86
    97.01,    5.16,    1108.45,    891.31
    98.00,    5.12,    1113.40,    890.77
    99.00,    5.08,    1118.31,    890.24
    100.00,    5.05,    1123.17,    889.71
    101.00,    5.02,    1127.97,    889.18
    102.00,    4.99,    1132.75,    888.66
    103.00,    4.97,    1137.49,    888.15
    104.00,    4.95,    1142.23,    887.63
    105.00,    4.94,    1146.97,    887.12
    106.00,    4.93,    1151.74,    886.60
    107.00,    4.92,    1156.56,    886.08
    108.00,    4.92,    1161.45,    885.55
    109.00,    4.92,    1166.43,    885.00
    110.00,    4.92,    1171.53,    884.45
    111.00,    4.91,    1176.78,    883.88
    112.00,    4.90,    1182.18,    883.30
    113.00,    4.89,    1187.76,    882.70
    114.00,    4.88,    1193.52,    882.07
    115.00,    4.85,    1199.48,    881.43
    116.00,    4.83,    1205.64,    880.76
    117.00,    4.79,    1212.01,    880.08
    118.00,    4.75,    1218.56,    879.37
    119.00,    4.71,    1225.30,    878.64
    120.00,    4.66,    1232.21,    877.90
    121.00,    4.61,    1239.28,    877.14
    122.00,    4.55,    1246.49,    876.36
    123.00,    4.49,    1253.82,    875.57
    124.00,    4.44,    1261.25,    874.78
    125.00,    4.38,    1268.77,    873.97
    126.00,    4.33,    1276.35,    873.16
    127.00,    4.27,    1283.98,    872.34
    128.00,    4.21,    1291.65,    871.52
    129.00,    4.15,    1299.35,    870.69
    130.00,    4.10,    1307.08,    869.87
    131.00,    4.03,    1314.82,    869.04
    132.00,    3.97,    1322.58,    868.21
    133.00,    3.90,    1330.36,    867.38
    134.00,    3.82,    1338.16,    866.55
    135.00,    3.74,    1346.00,    865.71
    136.00,    3.66,    1353.87,    864.88
    137.00,    3.58,    1361.78,    864.03
    138.01,    3.49,    1369.75,    863.19
    139.00,    3.40,    1377.77,    862.33
    140.00,    3.31,    1385.86,    861.47
    141.00,    3.23,    1394.02,    860.61
    142.00,    3.15,    1402.25,    859.74
    143.00,    3.07,    1410.55,    858.86
    144.00,    3.00,    1418.92,    857.97
    145.00,    2.94,    1427.35,    857.08
    146.00,    2.89,    1435.84,    856.18
    147.00,    2.84,    1444.38,    855.28
    148.00,    2.80,    1452.96,    854.37
    149.00,    2.77,    1461.57,    853.47
    150.00,    2.73,    1470.19,    852.56
    151.00,    2.69,    1478.81,    851.65
    152.01,    2.65,    1487.41,    850.74
    153.00,    2.60,    1495.99,    849.84
    154.00,    2.55,    1504.52,    848.95
    155.00,    2.48,    1512.99,    848.06
    156.00,    2.40,    1521.39,    847.18
    157.00,    2.32,    1529.71,    846.31
    158.00,    2.23,    1537.93,    845.45
    159.00,    2.14,    1546.04,    844.60
    160.00,    2.04,    1554.03,    843.77
    161.00,    1.96,    1561.90,    842.94
    162.01,    1.89,    1569.63,    842.14
    163.00,    1.83,    1577.23,    841.34
    164.00,    1.79,    1584.69,    840.57
    165.01,    1.78,    1592.01,    839.81
    166.01,    1.79,    1599.18,    839.06
    167.01,    1.82,    1606.22,    838.33
    168.01,    1.88,    1613.12,    837.61
    169.01,    1.95,    1619.89,    836.91
    170.01,    2.04,    1626.53,    836.22
    171.01,    2.14,    1633.06,    835.54
    172.01,    2.24,    1639.47,    834.88
    173.01,    2.33,    1645.79,    834.23
    174.01,    2.42,    1652.01,    833.59
    175.01,    2.50,    1658.14,    832.96
    176.01,    2.56,    1664.20,    832.33
    177.01,    2.60,    1670.19,    831.72
    178.01,    2.62,    1676.12,    831.11
    179.01,    2.63,    1681.99,    830.50
    180.01,    2.62,    1687.81,    829.91
    181.01,    2.60,    1693.59,    829.31
    183.01,    2.57,    1699.32,    828.73
    184.01,    2.53,    1705.00,    828.14
    185.01,    2.49,    1710.64,    827.57
    186.01,    2.44,    1716.23,    827.00
    187.01,    2.40,    1721.76,    826.43
    188.01,    2.35,    1727.23,    825.87
    189.01,    2.31,    1732.63,    825.32
    190.01,    2.27,    1737.96,    824.77
    191.01,    2.23,    1743.21,    824.24
    192.01,    2.19,    1748.38,    823.71
    193.01,    2.16,    1753.46,    823.19
    194.01,    2.12,    1758.45,    822.68
    195.01,    2.09,    1763.34,    822.19
    196.01,    2.06,    1768.14,    821.70
    197.01,    2.04,    1772.84,    821.22
    198.01,    2.02,    1777.46,    820.75
    199.01,    2.00,    1781.99,    820.29
    200.01,    1.99,    1786.44,    819.83
    201.01,    1.98,    1790.82,    819.39
    202.01,    1.97,    1795.14,    818.95
    203.01,    1.97,    1799.42,    818.52
    204.01,    1.97,    1803.65,    818.09
    205.01,    1.97,    1807.85,    817.66
    206.01,    1.97,    1812.04,    817.24
    207.01,    1.97,    1816.23,    816.81
    208.01,    1.97,    1820.42,    816.39
    209.01,    1.96,    1824.62,    815.96
    210.01,    1.96,    1828.85,    815.54
    211.01,    1.96,    1833.11,    815.11
    212.01,    1.96,    1837.41,    814.67
    213.01,    1.97,    1841.75,    814.23
    214.01,    1.99,    1846.13,    813.79
    215.01,    2.02,    1850.56,    813.34
    216.01,    2.07,    1855.03,    812.89
    217.01,    2.13,    1859.55,    812.44
    218.01,    2.21,    1864.11,    811.98
    219.01,    2.30,    1868.70,    811.52
    220.01,    2.41,    1873.34,    811.05
    221.01,    2.53,    1878.01,    810.58
    222.01,    2.66,    1882.71,    810.11
    223.01,    2.79,    1887.45,    809.64
    224.01,    2.93,    1892.21,    809.16
    225.01,    3.06,    1897.00,    808.68
    226.01,    3.19,    1901.82,    808.20
    227.01,    3.30,    1906.67,    807.72
    228.01,    3.40,    1911.55,    807.23
    229.01,    3.48,    1916.46,    806.74
    230.01,    3.54,    1921.40,    806.25
    231.01,    3.59,    1926.37,    805.76
    232.01,    3.63,    1931.38,    805.26
    233.01,    3.65,    1936.42,    804.76
    234.02,    3.66,    1941.49,    804.26
    235.01,    3.67,    1946.59,    803.75
    236.01,    3.67,    1951.72,    803.25
    237.01,    3.67,    1956.88,    802.74
    238.01,    3.68,    1962.07,    802.22
    239.01,    3.69,    1967.27,    801.71
    240.01,    3.71,    1972.49,    801.19
    241.01,    3.74,    1977.72,    800.68
    242.01,    3.77,    1982.94,    800.16
    243.01,    3.81,    1988.16,    799.65
    244.01,    3.86,    1993.36,    799.14
    245.01,    3.91,    1998.53,    798.63
    246.01,    3.96,    2003.68,    798.12
    247.01,    4.00,    2008.79,    797.62
    248.01,    4.04,    2013.86,    797.12
    249.01,    4.08,    2018.89,    796.63
    250.01,    4.11,    2023.87,    796.14
    251.01,    4.13,    2028.81,    795.66
    252.01,    4.15,    2033.70,    795.18
    253.01,    4.15,    2038.55,    794.70
    254.01,    4.15,    2043.37,    794.23
    255.01,    4.14,    2048.16,    793.76
    256.01,    4.13,    2052.93,    793.30
    257.01,    4.11,    2057.68,    792.83
    258.01,    4.09,    2062.44,    792.37
    259.01,    4.07,    2067.20,    791.91
    260.01,    4.04,    2071.98,    791.44
    261.01,    4.02,    2076.79,    790.97
    262.01,    3.99,    2081.63,    790.50
    263.01,    3.96,    2086.52,    790.03
    264.01,    3.94,    2091.45,    789.55
    265.01,    3.91,    2096.43,    789.06
    266.01,    3.88,    2101.47,    788.57
    267.01,    3.85,    2106.55,    788.08
    268.01,    3.81,    2111.68,    787.58
    269.01,    3.78,    2116.85,    787.08
    270.01,    3.74,    2122.05,    786.57
    271.01,    3.69,    2127.28,    786.07
    272.01,    3.65,    2132.54,    785.56
    273.01,    3.60,    2137.79,    785.05
    274.01,    3.55,    2143.06,    784.54
    275.02,    3.50,    2148.30,    784.03
    276.01,    3.45,    2153.53,    783.53
    277.01,    3.40,    2158.73,    783.02
    278.01,    3.35,    2163.90,    782.53
    279.01,    3.30,    2169.02,    782.03
    280.01,    3.25,    2174.10,    781.54
    281.01,    3.21,    2179.12,    781.06
    282.01,    3.16,    2184.10,    780.58
    283.01,    3.12,    2189.03,    780.10
    284.01,    3.08,    2193.92,    779.63
    285.01,    3.04,    2198.76,    779.16
    286.01,    3.00,    2203.57,    778.70
    287.01,    2.96,    2208.35,    778.24
    288.01,    2.92,    2213.10,    777.78
    289.01,    2.89,    2217.85,    777.33
    290.01,    2.85,    2222.59,    776.87
    291.01,    2.81,    2227.33,    776.42
    292.01,    2.77,    2232.10,    775.96
    293.01,    2.73,    2236.88,    775.50
    294.01,    2.69,    2241.70,    775.04
    295.01,    2.65,    2246.56,    774.57
    296.01,    2.61,    2251.47,    774.10
    297.01,    2.57,    2256.44,    773.63
    298.01,    2.52,    2261.47,    773.14
    299.01,    2.48,    2266.56,    772.66
    300.01,    2.44,    2271.72,    772.16
    301.01,    2.39,    2276.96,    771.66
    302.01,    2.35,    2282.26,    771.16
    303.01,    2.31,    2287.65,    770.64
    305.01,    2.26,    2293.10,    770.12
    306.01,    2.22,    2298.62,    769.60
    307.01,    2.17,    2304.21,    769.06
    308.01,    2.12,    2309.86,    768.52
    309.01,    2.08,    2315.57,    767.98
    310.01,    2.03,    2321.33,    767.43
    311.01,    1.98,    2327.13,    766.88
    312.01,    1.92,    2332.97,    766.32
    313.01,    1.87,    2338.83,    765.77
    314.01,    1.81,    2344.71,    765.21
    315.01,    1.76,    2350.60,    764.65
    316.02,    1.70,    2356.49,    764.09
    317.01,    1.65,    2362.38,    763.53
    318.01,    1.59,    2368.26,    762.98
    319.01,    1.54,    2374.12,    762.42
    320.01,    1.49,    2379.96,    761.87
    321.01,    1.44,    2385.78,    761.32
    322.01,    1.40,    2391.57,    760.77
    323.01,    1.36,    2397.35,    760.22
    324.01,    1.32,    2403.10,    759.68
    325.01,    1.29,    2408.85,    759.14
    326.01,    1.25,    2414.58,    758.60
    327.01,    1.22,    2420.32,    758.05
    328.01,    1.19,    2426.06,    757.51
    329.01,    1.15,    2431.83,    756.97
    330.02,    1.12,    2437.61,    756.42
    331.01,    1.08,    2443.43,    755.88
    332.01,    1.04,    2449.29,    755.33
    333.01,    0.99,    2455.20,    754.77
    334.01,    0.95,    2461.16,    754.21
    335.01,    0.90,    2467.17,    753.65
    336.01,    0.84,    2473.24,    753.08
    337.01,    0.79,    2479.35,    752.50
    338.01,    0.73,    2485.52,    751.93
    339.01,    0.68,    2491.73,    751.34
    340.01,    0.62,    2497.97,    750.76
    341.01,    0.56,    2504.24,    750.17
    342.01,    0.50,    2510.53,    749.59
    343.01,    0.44,    2516.83,    749.00
    344.01,    0.38,    2523.12,    748.41
    345.01,    0.32,    2529.41,    747.82
    346.01,    0.26,    2535.68,    747.24
    347.01,    0.20,    2541.93,    746.65
    348.01,    0.15,    2548.15,    746.08
    349.01,    0.09,    2554.34,    745.50
    350.01,    0.04,    2560.50,    744.92
    351.01,    -0.02,    2566.63,    744.35
    352.01,    -0.07,    2572.75,    743.79
    353.01,    -0.12,    2578.84,    743.22
    354.01,    -0.16,    2584.93,    742.65
    355.01,    -0.21,    2591.02,    742.09
    356.01,    -0.25,    2597.12,    741.52
    357.01,    -0.28,    2603.24,    740.96
    358.01,    -0.32,    2609.39,    740.39
    359.01,    -0.35,    2615.58,    739.81
    360.01,    -0.39,    2621.80,    739.24
    361.01,    -0.42,    2628.08,    738.66
    362.01,    -0.45,    2634.40,    738.07
    363.01,    -0.48,    2640.77,    737.48
    364.01,    -0.51,    2647.19,    736.89
    365.01,    -0.55,    2653.65,    736.30
    366.01,    -0.58,    2660.15,    735.70
    367.01,    -0.62,    2666.67,    735.10
    368.01,    -0.66,    2673.21,    734.50
    369.01,    -0.71,    2679.76,    733.89
    370.01,    -0.76,    2686.30,    733.29
    371.02,    -0.81,    2692.82,    732.69
    372.01,    -0.86,    2699.31,    732.10
    373.01,    -0.92,    2705.76,    731.51
    374.01,    -0.98,    2712.16,    730.92
    375.01,    -1.04,    2718.49,    730.34
    376.01,    -1.10,    2724.76,    729.76
    377.01,    -1.17,    2730.95,    729.20
    378.01,    -1.23,    2737.08,    728.64
    379.01,    -1.30,    2743.13,    728.09
    380.01,    -1.36,    2749.11,    727.54
    381.01,    -1.42,    2755.02,    727.00
    382.01,    -1.48,    2760.88,    726.46
    383.01,    -1.54,    2766.69,    725.93
    384.01,    -1.59,    2772.46,    725.41
    385.01,    -1.64,    2778.21,    724.88
    386.01,    -1.69,    2783.95,    724.36
    387.01,    -1.73,    2789.69,    723.84
    388.01,    -1.77,    2795.45,    723.31
    389.01,    -1.81,    2801.23,    722.79
    390.01,    -1.85,    2807.05,    722.26
    391.01,    -1.88,    2812.93,    721.73
    392.01,    -1.92,    2818.86,    721.19
    393.01,    -1.96,    2824.85,    720.64
    394.01,    -1.99,    2830.91,    720.09
    395.01,    -2.04,    2837.04,    719.54
    396.01,    -2.08,    2843.24,    718.98
    397.01,    -2.13,    2849.51,    718.41
    398.01,    -2.18,    2855.83,    717.84
    399.01,    -2.23,    2862.21,    717.26
    400.01,    -2.29,    2868.64,    716.68
    401.01,    -2.35,    2875.11,    716.10
    402.01,    -2.41,    2881.60,    715.51
    403.01,    -2.48,    2888.11,    714.93
    404.01,    -2.55,    2894.63,    714.34
    405.01,    -2.62,    2901.14,    713.75
    406.01,    -2.69,    2907.65,    713.16
    407.01,    -2.75,    2914.15,    712.58
    408.01,    -2.82,    2920.62,    712.00
    409.01,    -2.88,    2927.08,    711.42
    410.01,    -2.94,    2933.52,    710.84
    411.01,    -3.00,    2939.94,    710.26
    412.02,    -3.05,    2946.35,    709.69
    413.01,    -3.10,    2952.75,    709.12
    414.01,    -3.14,    2959.16,    708.54
    415.01,    -3.17,    2965.58,    707.97
    416.01,    -3.20,    2972.03,    707.39
    417.01,    -3.22,    2978.50,    706.81
    418.01,    -3.24,    2985.02,    706.23
    419.01,    -3.25,    2991.58,    705.64
    420.01,    -3.25,    2998.19,    705.05
    421.01,    -3.25,    3004.86,    704.46
    422.01,    -3.25,    3011.58,    703.86
    423.01,    -3.25,    3018.36,    703.26
    424.01,    -3.24,    3025.19,    702.65
    425.01,    -3.24,    3032.07,    702.04
    427.01,    -3.24,    3038.98,    701.43
    428.01,    -3.23,    3045.92,    700.81
    429.01,    -3.24,    3052.86,    700.20
    430.01,    -3.24,    3059.81,    699.58
    431.01,    -3.25,    3066.75,    698.97
    432.01,    -3.26,    3073.67,    698.36
    433.01,    -3.27,    3080.55,    697.75
    434.01,    -3.29,    3087.38,    697.15
    435.01,    -3.30,    3094.16,    696.55
    436.01,    -3.32,    3100.89,    695.96
    437.01,    -3.33,    3107.54,    695.37
    438.01,    -3.34,    3114.14,    694.80
    439.01,    -3.35,    3120.67,    694.22
    440.01,    -3.35,    3127.14,    693.65
    441.01,    -3.36,    3133.56,    693.09
    442.01,    -3.36,    3139.93,    692.53
    443.01,    -3.36,    3146.27,    691.98
    444.01,    -3.36,    3152.58,    691.43
    445.01,    -3.37,    3158.88,    690.87
    446.01,    -3.38,    3165.17,    690.33
    447.01,    -3.39,    3171.46,    689.78
    448.01,    -3.41,    3177.77,    689.23
    449.01,    -3.43,    3184.10,    688.67
    450.01,    -3.46,    3190.45,    688.12
    451.01,    -3.49,    3196.84,    687.56
    452.01,    -3.54,    3203.27,    687.00
    453.02,    -3.58,    3209.73,    686.44
    454.01,    -3.63,    3216.23,    685.88
    455.01,    -3.69,    3222.76,    685.31
    456.01,    -3.74,    3229.33,    684.74
    457.01,    -3.80,    3235.94,    684.17
    458.01,    -3.86,    3242.58,    683.59
    459.01,    -3.92,    3249.24,    683.02
    460.01,    -3.98,    3255.93,    682.44
    461.01,    -4.04,    3262.63,    681.86
    462.01,    -4.10,    3269.35,    681.28
    463.01,    -4.16,    3276.09,    680.69
    464.01,    -4.22,    3282.83,    680.11
    465.01,    -4.28,    3289.58,    679.53
    466.01,    -4.33,    3296.32,    678.95
    467.02,    -4.39,    3303.07,    678.37
    468.01,    -4.45,    3309.81,    677.79
