time;temp (°C);alt (m);press (m)

4.00;1.76;496.13;955.93

5.00;1.85;495.03;956.06

6.00;1.98;493.83;956.20

7.00;2.17;496.63;955.86

8.00;2.41;496.03;955.94

9.00;2.70;498.43;955.65

10.00;3.01;500.63;955.39

11.00;3.32;506.43;954.71

12.00;3.62;517.53;953.41

13.00;3.90;519.73;953.15

14.00;4.15;529.33;952.02

15.00;4.38;533.83;951.50

16.00;4.58;539.73;950.81

17.00;4.75;545.33;950.16

18.00;4.89;550.33;949.58

19.00;5.00;559.53;948.51

20.00;5.08;564.43;947.94

21.00;5.13;572.23;947.04

22.00;5.15;578.23;946.34

23.00;5.15;583.63;945.72

24.00;5.15;589.73;945.01

25.00;5.14;592.33;944.71

26.00;5.13;604.03;943.35

27.00;5.12;595.03;944.39

28.00;5.12;600.53;943.76

29.00;5.13;603.23;943.45

30.00;5.14;607.73;942.93

31.00;5.16;612.83;942.34

32.00;5.19;616.63;941.90

33.00;5.22;624.33;941.01

34.00;5.24;627.03;940.70

35.00;5.27;635.62;939.71

36.00;5.28;641.82;939.00

37.00;5.28;646.82;938.42

38.00;5.28;651.92;937.84

39.00;5.26;653.82;937.63

40.00;5.25;659.52;936.97

41.00;5.23;666.72;936.14

42.00;5.21;670.42;935.72

43.00;5.20;676.42;935.03

44.00;5.18;681.52;934.45

45.00;5.17;686.92;933.83

46.00;5.16;691.72;933.29

47.00;5.14;696.82;932.70

48.00;5.12;702.72;932.03

49.00;5.10;708.02;931.43

50.00;5.08;714.32;930.70

51.00;5.04;723.22;929.70

52.00;5.01;728.12;929.14

53.00;4.97;735.52;928.29

54.00;4.93;739.32;927.86

55.00;4.89;742.42;927.51

56.00;4.84;752.51;926.36

57.00;4.80;755.91;925.98

58.00;4.76;760.91;925.40

59.00;4.72;766.81;924.74

60.00;4.69;771.81;924.17

61.00;4.66;778.11;923.46

62.00;4.64;783.71;922.83

63.00;4.61;789.01;922.23

64.00;4.59;794.01;921.65

65.00;4.57;796.71;921.35

66.00;4.54;803.21;920.61

67.00;4.50;809.21;919.95

68.00;4.47;816.81;919.08

69.00;4.43;823.11;918.38

70.00;4.39;830.01;917.60

71.00;4.35;834.31;917.11

72.00;4.31;840.20;916.45

73.00;4.27;844.20;915.99

74.00;4.22;850.10;915.33

75.00;4.17;854.20;914.87

76.00;4.11;859.40;914.29

77.00;4.06;865.00;913.66

78.00;4.00;870.50;913.04

79.00;3.95;877.20;912.29

80.00;3.89;883.90;911.54

81.00;3.84;888.90;910.98

82.00;3.80;898.00;909.96

83.00;3.75;896.50;910.13

84.00;3.71;904.40;909.24

85.00;3.67;911.19;908.48

86.00;3.63;914.89;908.07

87.00;3.60;922.39;907.23

88.00;3.56;929.99;906.38

89.00;3.53;933.09;906.04

90.00;3.49;935.49;905.77

91.00;3.46;940.19;905.25

92.00;3.43;947.09;904.48

93.00;3.39;953.19;903.79

94.00;3.36;957.29;903.34

95.00;3.32;963.19;902.68

96.00;3.28;969.78;901.95

97.00;3.24;972.18;901.68

98.00;3.20;979.18;900.90

99.00;3.16;986.28;900.12

100.00;3.13;992.48;899.43

101.00;3.10;995.88;899.05

102.00;3.07;1000.98;898.49

103.00;3.05;1006.78;897.84

104.00;3.03;1012.98;897.16

105.00;3.01;1018.38;896.57

106.00;2.99;1022.97;896.05

107.00;2.97;1029.47;895.34

108.00;2.94;1032.07;895.05

109.00;2.91;1037.17;894.48

110.00;2.89;1039.87;894.18

111.00;2.86;1047.27;893.37

112.00;2.84;1051.47;892.91

113.00;2.82;1058.57;892.13

114.00;2.80;1063.87;891.54

115.00;2.79;1067.87;891.11

116.00;2.78;1072.17;890.63

117.00;2.77;1076.56;890.15

118.00;2.75;1080.56;889.70

119.00;2.73;1085.76;889.14

120.00;2.71;1092.66;888.38

121.00;2.69;1099.16;887.66

122.00;2.67;1103.26;887.22

123.00;2.64;1110.06;886.47

124.00;2.62;1115.86;885.84

125.00;2.59;1121.26;885.24

126.00;2.57;1125.65;884.77

127.00;2.56;1129.95;884.29

128.00;2.54;1133.95;883.86

129.00;2.52;1139.95;883.21

130.00;2.50;1145.85;882.56

131.00;2.48;1152.05;881.88

132.00;2.45;1157.85;881.25

133.00;2.42;1161.25;880.88

134.00;2.39;1165.95;880.37

135.00;2.35;1170.64;879.86

136.00;2.32;1176.84;879.19

137.00;2.28;1179.84;878.85

138.00;2.24;1184.74;878.32

139.00;2.20;1190.84;877.66

140.00;2.16;1194.24;877.30

141.00;2.12;1199.04;876.77

142.00;2.08;1203.24;876.31

143.00;2.05;1208.24;875.78

144.00;2.01;1212.83;875.27

145.00;1.98;1218.93;874.62

146.00;1.96;1218.83;874.63

147.00;1.93;1226.53;873.80

148.00;1.91;1232.63;873.13

149.00;1.90;1238.73;872.47

150.00;1.89;1245.53;871.74

151.00;1.87;1250.82;871.17

152.00;1.86;1255.42;870.67

153.00;1.85;1260.12;870.16

154.00;1.83;1265.22;869.61

155.00;1.82;1269.02;869.20

156.00;1.83;1275.32;868.52

157.00;1.85;1279.92;868.03

158.00;1.89;1283.12;867.69

159.00;1.94;1287.22;867.24

160.00;1.98;1292.31;866.70

161.00;2.02;1298.01;866.09

162.00;2.04;1304.31;865.41

163.00;2.05;1310.11;864.79

164.00;2.03;1315.31;864.24

165.00;2.00;1319.61;863.77

166.00;1.97;1326.40;863.04

167.00;1.94;1331.10;862.54

168.00;1.90;1336.50;861.97

169.00;1.87;1341.90;861.39

170.00;1.83;1346.50;860.90

171.00;1.79;1353.30;860.17

172.00;1.75;1359.40;859.52

173.00;1.70;1366.19;858.79

174.00;1.65;1372.29;858.14

175.00;1.60;1380.19;857.31

176.00;1.55;1384.59;856.84

177.00;1.51;1389.29;856.34

178.00;1.47;1395.48;855.68

179.00;1.43;1400.58;855.14

180.00;1.40;1405.48;854.62

181.00;1.37;1411.88;853.94

182.00;1.34;1416.38;853.46

183.00;1.31;1423.78;852.68

184.00;1.27;1430.77;851.94

185.00;1.23;1436.97;851.28

186.00;1.19;1442.27;850.72

187.00;1.15;1449.27;849.98

188.00;1.11;1452.97;849.59

189.00;1.07;1459.56;848.90

190.00;1.03;1464.56;848.36

191.00;1.00;1467.56;848.06

192.00;0.98;1472.96;847.48

193.00;0.96;1477.36;847.02

194.00;0.95;1480.86;846.65

195.00;0.94;1486.86;846.02

196.00;0.94;1491.75;845.50

197.00;0.93;1502.45;844.38

198.00;0.91;1506.45;843.96

199.00;0.89;1510.75;843.51

200.00;0.86;1518.94;842.65

201.00;0.82;1525.64;841.94

202.00;0.78;1534.14;841.06

203.00;0.74;1537.94;840.66

204.00;0.69;1543.14;840.12

205.00;0.65;1548.23;839.59

206.00;0.60;1552.53;839.13

207.00;0.56;1557.23;838.65

208.00;0.52;1562.53;838.09

209.00;0.47;1567.83;837.54

210.00;0.43;1573.03;836.99

211.00;0.39;1576.92;836.59

212.00;0.36;1580.72;836.19

213.00;0.32;1584.22;835.82

214.00;0.28;1588.02;835.43

215.00;0.24;1595.42;834.66

216.00;0.21;1601.02;834.08

217.00;0.17;1605.61;833.60

218.00;0.14;1608.51;833.30

219.00;0.11;1612.91;832.85

220.00;0.09;1617.31;832.39

221.00;0.07;1623.61;831.73

222.00;0.06;1629.31;831.14

223.00;0.05;1634.60;830.59

224.00;0.04;1639.60;830.07

225.00;0.03;1644.50;829.56

226.00;0.02;1650.00;828.99

227.00;0.02;1654.40;828.55

228.00;0.01;1658.29;828.14

229.00;-0.00;1665.39;827.40

230.00;-0.01;1669.99;826.93

231.00;-0.02;1674.29;826.48

232.00;-0.03;1679.79;825.92

233.00;-0.04;1686.28;825.25

234.00;-0.04;1691.18;824.75

235.00;-0.06;1697.38;824.11

236.00;-0.07;1702.48;823.58

237.00;-0.09;1710.37;822.77

238.00;-0.12;1715.77;822.22

239.00;-0.15;1721.07;821.68

240.00;-0.18;1727.07;821.06

241.00;-0.22;1731.67;820.58

242.00;-0.25;1738.16;819.92

243.00;-0.29;1742.16;819.51

244.00;-0.33;1746.86;819.03

245.00;-0.36;1753.36;818.36

246.00;-0.40;1758.15;817.88

247.00;-0.44;1763.15;817.37

248.00;-0.47;1769.15;816.75

249.00;-0.51;1774.85;816.17

250.00;-0.54;1780.15;815.63

251.00;-0.57;1786.24;815.00

252.00;-0.59;1791.34;814.48

253.00;-0.60;1796.94;813.91

254.00;-0.60;1803.24;813.27

255.00;-0.60;1812.43;812.34

256.00;-0.59;1814.73;812.10

257.00;-0.57;1822.83;811.28

258.00;-0.54;1830.92;810.46

259.00;-0.51;1836.22;809.93

260.00;-0.48;1844.32;809.11

261.00;-0.44;1851.02;808.42

262.00;-0.40;1858.91;807.63

263.00;-0.36;1865.31;806.98

264.00;-0.32;1872.01;806.30

265.00;-0.30;1877.80;805.73

266.00;-0.28;1882.80;805.22

267.00;-0.27;1888.60;804.64

268.00;-0.27;1894.40;804.05

269.00;-0.28;1899.99;803.49

270.00;-0.30;1901.09;803.38

271.00;-0.33;1912.69;802.21

272.00;-0.36;1918.58;801.62

273.00;-0.39;1924.38;801.04

274.00;-0.43;1927.98;800.68

275.00;-0.47;1933.68;800.11

276.00;-0.51;1941.37;799.34

277.00;-0.55;1946.17;798.86

278.00;-0.58;1952.47;798.23

279.00;-0.62;1961.06;797.38

280.00;-0.66;1967.06;796.78

281.00;-0.69;1972.36;796.25

282.00;-0.73;1979.06;795.58

283.00;-0.77;1985.45;794.94

284.00;-0.82;1992.55;794.23

285.00;-0.86;1999.35;793.56

286.00;-0.91;2005.34;792.96

287.00;-0.95;2010.74;792.42

288.00;-1.00;2016.24;791.88

289.00;-1.04;2020.24;791.48

290.00;-1.09;2024.93;791.01

291.00;-1.14;2029.63;790.55

292.00;-1.19;2036.43;789.88

293.00;-1.25;2043.12;789.21

294.00;-1.31;2048.82;788.64

295.00;-1.36;2055.32;788.00

296.00;-1.42;2061.91;787.36

297.00;-1.47;2067.41;786.81

298.00;-1.52;2072.31;786.32

299.00;-1.57;2080.91;785.48

300.00;-1.62;2087.30;784.84

301.00;-1.67;2088.80;784.70

302.00;-1.72;2095.20;784.07

303.00;-1.77;2100.99;783.50

304.00;-1.83;2108.09;782.80

305.00;-1.88;2114.79;782.13

306.00;-1.92;2118.59;781.76

307.00;-1.97;2123.28;781.30

308.00;-2.02;2129.08;780.73

309.00;-2.06;2134.38;780.21

310.00;-2.11;2139.97;779.66

311.00;-2.15;2146.47;779.02

312.00;-2.20;2150.47;778.63

313.00;-2.26;2156.37;778.06

314.00;-2.31;2161.16;777.58

315.00;-2.36;2167.06;777.00

316.00;-2.42;2173.16;776.41

317.00;-2.48;2180.15;775.72

318.00;-2.53;2185.85;775.16

319.00;-2.58;2192.25;774.54

320.00;-2.63;2196.34;774.14

321.00;-2.67;2201.24;773.67

322.00;-2.71;2205.54;773.24

323.00;-2.75;2209.84;772.82

324.00;-2.79;2215.93;772.23

325.00;-2.83;2220.93;771.74

326.00;-2.87;2226.03;771.24

327.00;-2.92;2231.22;770.73

328.00;-2.97;2235.12;770.36

329.00;-3.02;2240.92;769.80

330.00;-3.07;2248.02;769.10

331.00;-3.13;2253.41;768.58

332.00;-3.18;2260.91;767.85

333.00;-3.24;2266.60;767.30

334.00;-3.30;2275.70;766.42

335.00;-3.36;2277.40;766.26

336.00;-3.42;2282.20;765.78

337.00;-3.47;2289.19;765.11

338.00;-3.53;2294.99;764.54

339.00;-3.59;2301.68;763.90

340.00;-3.65;2308.28;763.26

341.00;-3.70;2315.68;762.55

342.00;-3.75;2322.77;761.86

343.00;-3.80;2328.87;761.27

344.00;-3.85;2334.66;760.71

345.00;-3.89;2339.86;760.21

346.00;-3.93;2345.56;759.67

347.00;-3.98;2349.76;759.26

348.00;-4.02;2354.35;758.82

349.00;-4.07;2361.05;758.18

350.00;-4.13;2366.55;757.65

351.00;-4.18;2373.04;757.02

352.00;-4.24;2380.64;756.29

353.00;-4.30;2386.33;755.74

354.00;-4.36;2393.13;755.09

355.00;-4.42;2401.02;754.34

356.00;-4.47;2409.22;753.55

357.00;-4.53;2416.82;752.82

358.00;-4.59;2424.11;752.13

359.00;-4.65;2430.21;751.54

360.00;-4.71;2437.40;750.85

361.00;-4.78;2444.70;750.16

362.00;-4.84;2451.99;749.47

363.00;-4.90;2457.09;748.98

364.00;-4.96;2463.29;748.39

365.00;-5.02;2467.68;747.97

366.00;-5.08;2472.38;747.52

367.00;-5.14;2480.18;746.78

368.00;-5.20;2486.27;746.20

369.00;-5.25;2492.37;745.62

370.00;-5.31;2497.86;745.10

371.00;-5.36;2503.26;744.58

372.00;-5.42;2508.86;744.06

373.00;-5.48;2515.05;743.47

374.00;-5.54;2521.65;742.84

375.00;-5.59;2527.55;742.29

376.00;-5.65;2533.94;741.68

377.00;-5.71;2537.94;741.30

378.00;-5.76;2543.33;740.79

379.00;-5.82;2548.63;740.29

380.00;-5.88;2554.03;739.78

381.00;-5.93;2559.72;739.24

382.00;-5.99;2566.62;738.59

383.00;-6.05;2573.91;737.91

384.00;-6.10;2578.71;737.45

385.00;-6.16;2585.61;736.80

386.00;-6.21;2589.70;736.41

387.00;-6.27;2596.00;735.82

388.00;-6.32;2601.80;735.27

389.00;-6.38;2608.69;734.63

390.00;-6.44;2615.19;734.01

391.00;-6.50;2621.08;733.47

392.00;-6.56;2630.88;732.54

393.00;-6.62;2637.87;731.89

394.00;-6.68;2645.27;731.20

395.00;-6.73;2650.36;730.72

396.00;-6.79;2657.36;730.06

397.00;-6.84;2663.35;729.50

398.00;-6.90;2667.95;729.07

399.00;-6.95;2672.25;728.67

400.00;-7.01;2676.54;728.27

401.00;-7.06;2682.34;727.73

402.00;-7.12;2689.14;727.09

403.00;-7.18;2696.33;726.42

404.00;-7.23;2702.43;725.86

405.00;-7.28;2709.42;725.20

406.00;-7.33;2715.82;724.61

407.00;-7.38;2720.81;724.14

408.00;-7.43;2725.51;723.71

409.00;-7.48;2730.61;723.23

410.00;-7.52;2735.80;722.75

411.00;-7.57;2740.50;722.31

412.00;-7.61;2745.60;721.84

413.00;-7.66;2752.09;721.24

414.00;-7.70;2757.79;720.71

415.00;-7.75;2763.48;720.18

416.00;-7.79;2769.18;719.65

417.00;-7.84;2778.17;718.82

418.00;-7.88;2779.97;718.65

419.00;-7.92;2785.37;718.16

420.00;-7.97;2789.66;717.76

421.00;-8.01;2793.96;717.37

422.00;-8.06;2800.66;716.74

423.00;-8.11;2806.65;716.19

424.00;-8.16;2813.85;715.53

425.00;-8.21;2819.94;714.97

426.00;-8.26;2826.34;714.38

427.00;-8.31;2833.43;713.72

428.00;-8.36;2840.53;713.07

429.00;-8.41;2847.22;712.45

430.00;-8.45;2853.22;711.90

431.00;-8.49;2859.51;711.33

432.00;-8.52;2862.51;711.06

433.00;-8.55;2869.10;710.45

434.00;-8.57;2873.10;710.08

435.00;-8.58;2877.20;709.71

436.00;-8.59;2883.49;709.13

437.00;-8.59;2889.09;708.62

438.00;-8.60;2895.18;708.06

439.00;-8.61;2898.08;707.80

440.00;-8.62;2903.48;707.30

441.00;-8.64;2908.97;706.81

442.00;-8.67;2915.77;706.18

443.00;-8.70;2921.96;705.62

444.00;-8.74;2927.56;705.11

445.00;-8.79;2931.06;704.80

446.00;-8.83;2937.25;704.23

447.00;-8.88;2941.85;703.81

448.00;-8.92;2948.14;703.24

449.00;-8.97;2953.44;702.76

450.00;-9.02;2958.04;702.34

451.00;-9.06;2961.93;701.98

452.00;-9.11;2968.33;701.41

453.00;-9.15;2974.72;700.83

454.00;-9.20;2980.72;700.29

455.00;-9.24;2985.81;699.82

456.00;-9.29;2990.61;699.38

457.00;-9.33;2996.01;698.90

458.00;-9.37;3001.40;698.41

459.00;-9.41;3006.40;697.96

460.00;-9.44;3011.79;697.47

461.00;-9.47;3018.99;696.82

462.00;-9.50;3023.78;696.39

463.00;-9.51;3029.38;695.89

464.00;-9.53;3035.27;695.35

465.00;-9.54;3042.07;694.75

466.00;-9.55;3046.57;694.34

467.00;-9.58;3050.06;694.03

468.00;-9.60;3053.76;693.69

469.00;-9.64;3062.15;692.94

470.00;-9.68;3067.25;692.48

471.00;-9.73;3076.04;691.69

472.00;-9.78;3083.74;691.00

473.00;-9.83;3090.03;690.44

474.00;-9.88;3097.82;689.74

475.00;-9.93;3102.42;689.33

476.00;-9.98;3107.61;688.87

477.00;-10.02;3112.51;688.43

478.00;-10.06;3118.01;687.94

479.00;-10.10;3124.20;687.39

480.00;-10.15;3128.70;686.99

481.00;-10.20;3134.59;686.46

482.00;-10.25;3140.89;685.89

483.00;-10.31;3147.28;685.33

484.00;-10.37;3154.28;684.70

485.00;-10.42;3161.37;684.08

486.00;-10.48;3169.36;683.36

487.00;-10.53;3177.16;682.67

488.00;-10.58;3183.15;682.14

489.00;-10.62;3187.95;681.71

490.00;-10.66;3192.44;681.32

491.00;-10.70;3197.84;680.84

492.00;-10.74;3203.23;680.36

493.00;-10.77;3208.93;679.86

494.00;-10.80;3213.82;679.43

495.00;-10.83;3218.42;679.02

496.00;-10.85;3224.82;678.45

497.00;-10.86;3231.31;677.88

498.00;-10.87;3235.71;677.49

499.00;-10.87;3242.60;676.88

500.00;-10.87;3249.59;676.27

501.00;-10.87;3256.79;675.64

502.00;-10.87;3263.58;675.03

503.00;-10.89;3269.68;674.50

504.00;-10.90;3274.67;674.07

505.00;-10.91;3279.67;673.62

506.00;-10.93;3286.06;673.06

507.00;-10.94;3292.96;672.46

508.00;-10.95;3299.75;671.87

509.00;-10.96;3306.24;671.30

510.00;-10.98;3312.74;670.73

511.00;-11.01;3319.23;670.16

512.00;-11.04;3324.03;669.74

513.00;-11.08;3329.32;669.29

514.00;-11.11;3334.52;668.83

515.00;-11.15;3338.61;668.48

516.00;-11.18;3343.01;668.09

517.00;-11.21;3347.71;667.68

518.00;-11.24;3352.80;667.24

519.00;-11.26;3358.20;666.77

520.00;-11.28;3364.79;666.20

521.00;-11.31;3369.89;665.75

522.00;-11.33;3375.78;665.24

523.00;-11.35;3380.98;664.79

524.00;-11.38;3386.07;664.35

525.00;-11.42;3391.97;663.84

526.00;-11.46;3397.86;663.33

527.00;-11.50;3403.95;662.80

528.00;-11.55;3409.35;662.34

529.00;-11.60;3414.35;661.91

530.00;-11.66;3421.04;661.33

531.00;-11.71;3427.33;660.78

532.00;-11.76;3433.83;660.22

533.00;-11.82;3440.62;659.64

534.00;-11.87;3445.32;659.23

535.00;-11.92;3449.71;658.86

536.00;-11.96;3455.11;658.39

537.00;-12.02;3461.30;657.86

538.00;-12.07;3467.40;657.33

539.00;-12.13;3474.29;656.74

540.00;-12.19;3481.18;656.14

541.00;-12.25;3488.18;655.55

542.00;-12.30;3495.47;654.93

543.00;-12.36;3500.96;654.46

544.00;-12.42;3506.76;653.95

545.00;-12.47;3512.35;653.48

546.00;-12.52;3517.55;653.03

547.00;-12.57;3519.55;652.86

548.00;-12.62;3525.54;652.35

549.00;-12.67;3532.93;651.71

550.00;-12.71;3538.53;651.24

551.00;-12.76;3543.02;650.86

552.00;-12.81;3545.62;650.63

553.00;-12.85;3551.02;650.18

554.00;-12.90;3556.31;649.72

555.00;-12.96;3563.40;649.11

556.00;-13.01;3568.00;648.73

557.00;-13.06;3575.49;648.09

558.00;-13.12;3581.99;647.54

559.00;-13.17;3585.38;647.25

560.00;-13.22;3590.88;646.78

561.00;-13.28;3595.07;646.42

562.00;-13.33;3600.67;645.95

563.00;-13.39;3605.56;645.54

564.00;-13.45;3612.16;644.98

565.00;-13.51;3619.35;644.36

566.00;-13.56;3627.74;643.66

567.00;-13.62;3633.83;643.14

568.00;-13.68;3640.33;642.59

569.00;-13.73;3646.82;642.04

570.00;-13.79;3651.72;641.63

571.00;-13.84;3654.81;641.36

572.00;-13.89;3661.61;640.79

573.00;-13.95;3669.20;640.15

574.00;-14.00;3674.69;639.69

575.00;-14.05;3680.59;639.19

576.00;-14.11;3685.78;638.76

577.00;-14.16;3690.58;638.35

578.00;-14.21;3696.47;637.86

579.00;-14.26;3701.57;637.42

580.00;-14.31;3705.66;637.08

581.00;-14.36;3710.46;636.68

582.00;-14.41;3716.55;636.16

583.00;-14.46;3722.65;635.66

584.00;-14.51;3728.94;635.13

585.00;-14.56;3733.04;634.78

586.00;-14.60;3737.83;634.38

587.00;-14.65;3743.02;633.95

588.00;-14.70;3748.62;633.48

589.00;-14.74;3754.31;633.00

590.00;-14.79;3759.41;632.58

591.00;-14.83;3765.90;632.04

592.00;-14.88;3771.00;631.61

593.00;-14.93;3777.19;631.10

594.00;-14.97;3783.28;630.59

595.00;-15.02;3789.98;630.02

596.00;-15.06;3795.67;629.55

597.00;-15.10;3801.36;629.08

598.00;-15.14;3805.26;628.75

599.00;-15.18;3812.15;628.18

600.00;-15.22;3816.85;627.79

601.00;-15.26;3823.34;627.25

602.00;-15.30;3829.33;626.75

603.00;-15.34;3837.23;626.10

604.00;-15.38;3845.02;625.45

605.00;-15.43;3852.01;624.87

606.00;-15.47;3859.10;624.29

607.00;-15.52;3865.80;623.74

608.00;-15.56;3869.89;623.39

609.00;-15.60;3873.79;623.07

610.00;-15.65;3880.58;622.52

611.00;-15.70;3886.97;621.99

612.00;-15.75;3892.57;621.52

613.00;-15.80;3900.36;620.89

614.00;-15.85;3907.05;620.33

615.00;-15.89;3914.44;619.72

616.00;-15.93;3921.14;619.17

617.00;-15.97;3926.43;618.74

618.00;-16.00;3931.02;618.36

619.00;-16.02;3934.82;618.05

620.00;-16.05;3939.62;617.66

621.00;-16.07;3944.61;617.25

622.00;-16.09;3951.40;616.69

623.00;-16.12;3958.30;616.13

624.00;-16.14;3965.79;615.52

625.00;-16.17;3973.38;614.89

626.00;-16.19;3979.67;614.38

627.00;-16.22;3984.17;614.01

628.00;-16.25;3987.26;613.76

629.00;-16.29;3992.06;613.37

630.00;-16.32;3998.35;612.86

631.00;-16.36;4005.24;612.29

632.00;-16.40;4012.14;611.73

633.00;-16.43;4019.43;611.14

634.00;-16.47;4027.22;610.51

635.00;-16.50;4033.11;610.03

636.00;-16.53;4038.51;609.59

637.00;-16.56;4043.50;609.19

638.00;-16.59;4048.60;608.77

639.00;-16.62;4054.79;608.27

640.00;-16.66;4061.18;607.76

641.00;-16.70;4067.87;607.21

642.00;-16.74;4076.36;606.53

643.00;-16.78;4083.26;605.98

644.00;-16.83;4090.85;605.36

645.00;-16.87;4097.64;604.81

646.00;-16.91;4104.03;604.30

647.00;-16.96;4111.22;603.72

648.00;-17.00;4117.92;603.18

649.00;-17.05;4125.71;602.55

650.00;-17.11;4132.60;602.00

651.00;-17.16;4139.89;601.42

652.00;-17.22;4147.58;600.80

653.00;-17.27;4154.97;600.21

654.00;-17.32;4160.97;599.72

655.00;-17.38;4166.06;599.32

656.00;-17.43;4170.75;598.94

657.00;-17.48;4175.65;598.55

658.00;-17.54;4182.34;598.02

659.00;-17.59;4187.83;597.58

660.00;-17.64;4193.73;597.11

661.00;-17.70;4198.02;596.76

662.00;-17.75;4204.12;596.28

663.00;-17.81;4210.11;595.81

664.00;-17.86;4215.30;595.39

665.00;-17.92;4219.40;595.07

666.00;-17.97;4224.89;594.63

667.00;-18.03;4230.09;594.22

668.00;-18.08;4235.98;593.74

669.00;-18.14;4243.07;593.18

670.00;-18.20;4248.96;592.71

671.00;-18.26;4256.75;592.09

672.00;-18.31;4263.15;591.59

673.00;-18.36;4268.84;591.14

674.00;-18.41;4273.83;590.74

675.00;-18.45;4279.63;590.28

676.00;-18.48;4284.72;589.88

677.00;-18.50;4289.81;589.48

678.00;-18.52;4294.71;589.09

679.00;-18.54;4301.50;588.56

680.00;-18.55;4308.19;588.03

681.00;-18.56;4313.09;587.65

682.00;-18.58;4319.38;587.15

683.00;-18.60;4325.37;586.68

684.00;-18.62;4330.96;586.24

685.00;-18.65;4336.26;585.82

686.00;-18.69;4342.25;585.35

687.00;-18.73;4347.44;584.95

688.00;-18.77;4354.04;584.43

689.00;-18.82;4360.33;583.94

690.00;-18.86;4367.32;583.39

691.00;-18.91;4372.21;583.00

692.00;-18.96;4377.21;582.61

693.00;-19.01;4382.50;582.20

694.00;-19.06;4388.09;581.76

695.00;-19.11;4393.69;581.32

696.00;-19.16;4400.38;580.80

697.00;-19.22;4405.97;580.36

698.00;-19.27;4411.67;579.92

