time,temp (°C),alt (m)
    4.00,    10.77,    515.27
    5.00,    10.70,    521.98
    6.00,    10.63,    528.65
    7.00,    10.56,    535.12
    8.00,    10.49,    541.48
    9.00,    10.42,    547.79
    10.00,    10.36,    554.16
    11.00,    10.29,    560.50
    12.00,    10.23,    566.88
    13.00,    10.16,    573.22
    14.00,    10.10,    579.52
    15.01,    10.04,    585.81
    16.00,    9.98,    592.08
    17.00,    9.92,    598.33
    18.00,    9.86,    604.55
    19.00,    9.80,    610.74
    20.00,    9.74,    616.86
    21.00,    9.68,    622.91
    22.00,    9.62,    628.88
    23.00,    9.56,    634.78
    24.00,    9.51,    640.58
    25.00,    9.45,    646.35
    26.00,    9.39,    652.11
    27.00,    9.34,    657.87
    28.00,    9.28,    663.65
    29.00,    9.23,    669.48
    30.00,    9.17,    675.38
    31.00,    9.12,    681.36
    32.00,    9.06,    687.43
    33.00,    9.00,    693.60
    34.00,    8.94,    699.86
    35.00,    8.88,    706.23
    36.00,    8.82,    712.71
    37.00,    8.76,    719.31
    38.00,    8.70,    726.02
    39.00,    8.64,    732.83
    40.00,    8.57,    739.75
    41.00,    8.51,    746.78
    42.00,    8.44,    753.90
    43.00,    8.38,    761.11
    44.00,    8.31,    768.41
    45.00,    8.24,    775.78
    46.00,    8.17,    783.23
    47.00,    8.10,    790.72
    48.00,    8.03,    798.26
    49.00,    7.96,    805.84
    50.00,    7.88,    813.43
    51.00,    7.81,    821.03
    52.00,    7.73,    828.62
    53.00,    7.65,    836.21
    54.00,    7.58,    843.79
    55.00,    7.50,    851.34
    56.01,    7.42,    858.87
    57.00,    7.34,    866.37
    58.00,    7.27,    873.84
    59.00,    7.19,    881.27
    61.00,    7.12,    888.68
    62.00,    7.04,    896.04
    63.00,    6.97,    903.37
    64.00,    6.90,    910.67
    65.00,    6.83,    917.91
    66.00,    6.76,    925.11
    67.00,    6.69,    932.25
    68.00,    6.63,    939.34
    69.00,    6.56,    946.35
    70.00,    6.50,    953.29
    71.00,    6.43,    960.16
    72.00,    6.37,    966.92
    73.00,    6.30,    973.60
    74.00,    6.24,    980.17
    75.00,    6.18,    986.63
    76.00,    6.13,    992.98
    77.00,    6.07,    999.21
    78.00,    6.02,    1005.34
    79.00,    5.98,    1011.35
    80.00,    5.93,    1017.26
    81.00,    5.89,    1023.07
    82.00,    5.85,    1028.79
    83.00,    5.81,    1034.43
    84.00,    5.77,    1040.00
    85.00,    5.73,    1045.50
    86.00,    5.69,    1050.94
    87.00,    5.66,    1056.34
    88.00,    5.62,    1061.70
    89.00,    5.58,    1067.02
    90.00,    5.54,    1072.31
    91.00,    5.49,    1077.57
    92.00,    5.45,    1082.79
    93.00,    5.40,    1087.98
    94.00,    5.36,    1093.13
    95.00,    5.31,    1098.23
    96.00,    5.27,    1103.29
    97.01,    5.22,    1108.30
    98.00,    5.18,    1113.26
    99.00,    5.15,    1118.17
    100.00,    5.11,    1123.02
    101.00,    5.08,    1127.83
    102.00,    5.05,    1132.60
    103.00,    5.03,    1137.35
    104.00,    5.01,    1142.09
    105.00,    5.00,    1146.83
    106.00,    4.99,    1151.60
    107.00,    4.98,    1156.41
    108.00,    4.98,    1161.30
    109.00,    4.98,    1166.29
    110.00,    4.97,    1171.39
    111.00,    4.97,    1176.64
    112.00,    4.96,    1182.04
    113.00,    4.95,    1187.62
    114.00,    4.93,    1193.38
    115.00,    4.91,    1199.34
    116.00,    4.88,    1205.50
    117.00,    4.85,    1211.86
    118.00,    4.81,    1218.42
    119.00,    4.76,    1225.16
    120.00,    4.71,    1232.07
    121.00,    4.66,    1239.14
    122.00,    4.61,    1246.35
    123.00,    4.55,    1253.68
    124.00,    4.50,    1261.11
    125.00,    4.44,    1268.62
    126.00,    4.38,    1276.20
    127.00,    4.33,    1283.84
    128.00,    4.27,    1291.51
    129.00,    4.21,    1299.21
    130.00,    4.15,    1306.93
    131.00,    4.09,    1314.68
    132.00,    4.02,    1322.44
    133.00,    3.95,    1330.22
    134.00,    3.88,    1338.02
    135.00,    3.80,    1345.85
    136.00,    3.72,    1353.72
    137.00,    3.63,    1361.64
    138.01,    3.54,    1369.60
    139.00,    3.46,    1377.63
    140.00,    3.37,    1385.72
    141.00,    3.28,    1393.88
    142.00,    3.20,    1402.11
    143.00,    3.13,    1410.41
    144.00,    3.06,    1418.78
    145.00,    3.00,    1427.21
    146.00,    2.94,    1435.70
    147.00,    2.90,    1444.24
    148.00,    2.86,    1452.82
    149.00,    2.82,    1461.42
    150.00,    2.78,    1470.04
    151.00,    2.75,    1478.66
    152.01,    2.70,    1487.27
    153.00,    2.66,    1495.84
    154.00,    2.60,    1504.38
    155.00,    2.53,    1512.85
    156.00,    2.46,    1521.25
    157.00,    2.37,    1529.57
    158.00,    2.28,    1537.78
    159.00,    2.19,    1545.90
    160.00,    2.10,    1553.89
    161.00,    2.01,    1561.75
    162.01,    1.94,    1569.49
    163.00,    1.88,    1577.09
    164.00,    1.84,    1584.55
    165.01,    1.83,    1591.86
    166.01,    1.84,    1599.04
    167.01,    1.87,    1606.07
    168.01,    1.93,    1612.97
    169.01,    2.00,    1619.74
    170.01,    2.09,    1626.39
    171.01,    2.19,    1632.91
    172.01,    2.29,    1639.33
    173.01,    2.38,    1645.64
    174.01,    2.47,    1651.86
    175.01,    2.55,    1658.00
    176.01,    2.61,    1664.05
    177.01,    2.65,    1670.04
    178.01,    2.67,    1675.97
    179.01,    2.68,    1681.85
    180.01,    2.67,    1687.67
    181.01,    2.65,    1693.44
    183.01,    2.62,    1699.18
    184.01,    2.58,    1704.86
    185.01,    2.54,    1710.50
    186.01,    2.49,    1716.08
    187.01,    2.45,    1721.61
    188.01,    2.40,    1727.08
    189.01,    2.36,    1732.48
    190.01,    2.32,    1737.81
    191.01,    2.28,    1743.07
    192.01,    2.24,    1748.23
    193.01,    2.20,    1753.31
    194.01,    2.17,    1758.30
    195.01,    2.14,    1763.19
    196.01,    2.11,    1767.99
    197.01,    2.08,    1772.70
    198.01,    2.06,    1777.31
    199.01,    2.05,    1781.84
    200.01,    2.03,    1786.30
    201.01,    2.02,    1790.68
    202.01,    2.02,    1795.00
    203.01,    2.02,    1799.27
    204.01,    2.02,    1803.50
    205.01,    2.02,    1807.71
    206.01,    2.02,    1811.90
    207.01,    2.01,    1816.08
    208.01,    2.01,    1820.27
    209.01,    2.01,    1824.48
    210.01,    2.01,    1828.71
    211.01,    2.01,    1832.97
    212.01,    2.01,    1837.27
    213.01,    2.02,    1841.61
    214.01,    2.04,    1845.99
    215.01,    2.07,    1850.42
    216.01,    2.12,    1854.89
    217.01,    2.18,    1859.40
    218.01,    2.25,    1863.96
    219.01,    2.35,    1868.56
    220.01,    2.45,    1873.19
    221.01,    2.57,    1877.86
    222.01,    2.70,    1882.57
    223.01,    2.84,    1887.30
    224.01,    2.97,    1892.07
    225.01,    3.10,    1896.86
    226.01,    3.23,    1901.68
    227.01,    3.34,    1906.53
    228.01,    3.44,    1911.41
    229.01,    3.52,    1916.31
    230.01,    3.59,    1921.25
    231.01,    3.64,    1926.23
    232.01,    3.67,    1931.23
    233.01,    3.69,    1936.27
    234.02,    3.70,    1941.34
    235.01,    3.71,    1946.44
    236.01,    3.71,    1951.57
    237.01,    3.71,    1956.74
    238.01,    3.72,    1961.92
    239.01,    3.73,    1967.13
    240.01,    3.75,    1972.34
    241.01,    3.78,    1977.57
    242.01,    3.81,    1982.79
    243.01,    3.86,    1988.01
    244.01,    3.90,    1993.21
    245.01,    3.95,    1998.39
    246.01,    4.00,    2003.54
    247.01,    4.04,    2008.65
    248.01,    4.08,    2013.72
    249.01,    4.12,    2018.74
    250.01,    4.15,    2023.73
    251.01,    4.17,    2028.66
    252.01,    4.19,    2033.56
    253.01,    4.19,    2038.41
    254.01,    4.19,    2043.22
    255.01,    4.18,    2048.01
    256.01,    4.17,    2052.78
    257.01,    4.15,    2057.53
    258.01,    4.13,    2062.29
    259.01,    4.11,    2067.05
    260.01,    4.08,    2071.83
    261.01,    4.06,    2076.64
    262.01,    4.03,    2081.48
    263.01,    4.00,    2086.37
    264.01,    3.97,    2091.30
    265.01,    3.95,    2096.29
    266.01,    3.92,    2101.32
    267.01,    3.88,    2106.40
    268.01,    3.85,    2111.53
    269.01,    3.81,    2116.70
    270.01,    3.77,    2121.90
    271.01,    3.73,    2127.14
    272.01,    3.68,    2132.39
    273.01,    3.64,    2137.65
    274.01,    3.59,    2142.91
    275.02,    3.54,    2148.16
    276.01,    3.49,    2153.38
    277.01,    3.44,    2158.58
    278.01,    3.38,    2163.75
    279.01,    3.34,    2168.87
    280.01,    3.29,    2173.95
    281.01,    3.24,    2178.98
    282.01,    3.20,    2183.96
    283.01,    3.15,    2188.89
    284.01,    3.11,    2193.77
    285.01,    3.07,    2198.61
    286.01,    3.03,    2203.42
    287.01,    3.00,    2208.20
    288.01,    2.96,    2212.96
    289.01,    2.92,    2217.70
    290.01,    2.88,    2222.44
    291.01,    2.85,    2227.19
    292.01,    2.81,    2231.95
    293.01,    2.77,    2236.73
    294.01,    2.73,    2241.55
    295.01,    2.69,    2246.42
    296.01,    2.64,    2251.33
    297.01,    2.60,    2256.29
    298.01,    2.56,    2261.32
    299.01,    2.52,    2266.41
    300.01,    2.47,    2271.57
    301.01,    2.43,    2276.81
    302.01,    2.39,    2282.12
    303.01,    2.34,    2287.50
    305.01,    2.30,    2292.95
    306.01,    2.25,    2298.47
    307.01,    2.21,    2304.06
    308.01,    2.16,    2309.71
    309.01,    2.11,    2315.42
    310.01,    2.06,    2321.18
    311.01,    2.01,    2326.98
    312.01,    1.96,    2332.82
    313.01,    1.90,    2338.68
    314.01,    1.85,    2344.56
    315.01,    1.79,    2350.45
    316.02,    1.73,    2356.34
    317.01,    1.68,    2362.23
    318.01,    1.62,    2368.11
    319.01,    1.57,    2373.97
    320.01,    1.52,    2379.81
    321.01,    1.48,    2385.63
    322.01,    1.43,    2391.42
    323.01,    1.39,    2397.20
    324.01,    1.35,    2402.95
    325.01,    1.32,    2408.70
    326.01,    1.28,    2414.43
    327.01,    1.25,    2420.17
    328.01,    1.22,    2425.91
    329.01,    1.18,    2431.68
    330.02,    1.15,    2437.46
    331.01,    1.11,    2443.28
    332.01,    1.07,    2449.14
    333.01,    1.02,    2455.05
    334.01,    0.98,    2461.01
    335.01,    0.93,    2467.02
    336.01,    0.87,    2473.09
    337.01,    0.82,    2479.20
    338.01,    0.76,    2485.37
    339.01,    0.71,    2491.58
    340.01,    0.65,    2497.82
    341.01,    0.59,    2504.09
    342.01,    0.53,    2510.38
    343.01,    0.47,    2516.68
    344.01,    0.41,    2522.97
    345.01,    0.35,    2529.26
    346.01,    0.29,    2535.53
    347.01,    0.23,    2541.78
    348.01,    0.18,    2548.00
    349.01,    0.12,    2554.19
    350.01,    0.06,    2560.35
    351.01,    0.01,    2566.48
    352.01,    -0.04,    2572.60
    353.01,    -0.09,    2578.69
    354.01,    -0.13,    2584.78
    355.01,    -0.18,    2590.87
    356.01,    -0.22,    2596.97
    357.01,    -0.26,    2603.09
    358.01,    -0.29,    2609.24
    359.01,    -0.33,    2615.43
    360.01,    -0.36,    2621.65
    361.01,    -0.39,    2627.92
    362.01,    -0.42,    2634.25
    363.01,    -0.45,    2640.62
    364.01,    -0.49,    2647.04
    365.01,    -0.52,    2653.50
    366.01,    -0.56,    2660.00
    367.01,    -0.60,    2666.52
    368.01,    -0.64,    2673.06
    369.01,    -0.68,    2679.61
    370.01,    -0.73,    2686.15
    371.02,    -0.78,    2692.67
    372.01,    -0.84,    2699.16
    373.01,    -0.89,    2705.61
    374.01,    -0.95,    2712.01
    375.01,    -1.01,    2718.34
    376.01,    -1.08,    2724.61
    377.01,    -1.14,    2730.80
    378.01,    -1.21,    2736.93
    379.01,    -1.27,    2742.97
    380.01,    -1.33,    2748.95
    381.01,    -1.40,    2754.87
    382.01,    -1.45,    2760.73
    383.01,    -1.51,    2766.54
    384.01,    -1.56,    2772.31
    385.01,    -1.61,    2778.06
    386.01,    -1.66,    2783.80
    387.01,    -1.70,    2789.54
    388.01,    -1.75,    2795.30
    389.01,    -1.78,    2801.08
    390.01,    -1.82,    2806.90
    391.01,    -1.86,    2812.78
    392.01,    -1.89,    2818.70
    393.01,    -1.93,    2824.70
    394.01,    -1.97,    2830.76
    395.01,    -2.01,    2836.89
    396.01,    -2.06,    2843.09
    397.01,    -2.10,    2849.35
    398.01,    -2.15,    2855.68
    399.01,    -2.21,    2862.06
    400.01,    -2.26,    2868.49
    401.01,    -2.33,    2874.95
    402.01,    -2.39,    2881.45
    403.01,    -2.46,    2887.96
    404.01,    -2.52,    2894.47
    405.01,    -2.59,    2900.99
    406.01,    -2.66,    2907.50
    407.01,    -2.73,    2913.99
    408.01,    -2.80,    2920.47
    409.01,    -2.86,    2926.93
    410.01,    -2.92,    2933.36
    411.01,    -2.98,    2939.78
    412.02,    -3.03,    2946.19
    413.01,    -3.07,    2952.60
    414.01,    -3.11,    2959.01
    415.01,    -3.15,    2965.43
    416.01,    -3.18,    2971.87
    417.01,    -3.20,    2978.35
    418.01,    -3.21,    2984.86
    419.01,    -3.22,    2991.42
    420.01,    -3.23,    2998.04
    421.01,    -3.23,    3004.71
    422.01,    -3.23,    3011.43
    423.01,    -3.23,    3018.21
    424.01,    -3.22,    3025.04
    425.01,    -3.22,    3031.92
    427.01,    -3.21,    3038.83
    428.01,    -3.21,    3045.76
    429.01,    -3.22,    3052.71
    430.01,    -3.22,    3059.66
    431.01,    -3.23,    3066.60
    432.01,    -3.24,    3073.52
    433.01,    -3.25,    3080.40
    434.01,    -3.27,    3087.23
    435.01,    -3.28,    3094.01
    436.01,    -3.29,    3100.73
    437.01,    -3.31,    3107.39
    438.01,    -3.32,    3113.98
    439.01,    -3.33,    3120.51
    440.01,    -3.33,    3126.98
    441.01,    -3.34,    3133.40
    442.01,    -3.34,    3139.78
    443.01,    -3.34,    3146.12
    444.01,    -3.34,    3152.43
    445.01,    -3.35,    3158.72
    446.01,    -3.36,    3165.02
    447.01,    -3.37,    3171.31
    448.01,    -3.39,    3177.62
    449.01,    -3.41,    3183.94
    450.01,    -3.44,    3190.30
    451.01,    -3.48,    3196.69
    452.01,    -3.52,    3203.11
    453.02,    -3.56,    3209.57
    454.01,    -3.61,    3216.07
    455.01,    -3.67,    3222.61
    456.01,    -3.72,    3229.18
    457.01,    -3.78,    3235.79
    458.01,    -3.84,    3242.42
    459.01,    -3.90,    3249.09
    460.01,    -3.96,    3255.77
    461.01,    -4.02,    3262.48
    462.01,    -4.08,    3269.20
    463.01,    -4.14,    3275.94
    464.01,    -4.20,    3282.68
    465.01,    -4.26,    3289.42
    466.01,    -4.32,    3296.17
    467.02,    -4.38,    3302.91
    468.01,    -4.44,    3309.65
    469.01,    -4.49,    3316.39
    470.01,    -4.55,    3323.11
    471.01,    -4.61,    3329.82
    472.01,    -4.67,    3336.52
    473.01,    -4.73,    3343.21
    474.01,    -4.79,    3349.88
    475.02,    -4.85,    3356.55
    476.02,    -4.91,    3363.20
    477.01,    -4.96,    3369.85
    478.01,    -5.02,    3376.50
    479.01,    -5.08,    3383.16
    480.02,    -5.14,    3389.82
    481.02,    -5.20,    3396.51
    482.01,    -5.26,    3403.22
    483.02,    -5.31,    3409.96
    484.02,    -5.37,    3416.75
    485.02,    -5.43,    3423.58
    486.02,    -5.50,    3430.46
    487.02,    -5.56,    3437.40
    488.02,    -5.62,    3444.39
    489.02,    -5.68,    3451.45
    490.02,    -5.74,    3458.57
    491.02,    -5.80,    3465.74
    492.02,    -5.86,    3472.97
    493.02,    -5.92,    3480.24
    494.02,    -5.98,    3487.55
    495.02,    -6.03,    3494.88
    496.02,    -6.08,    3502.23
    497.02,    -6.12,    3509.59
    498.02,    -6.17,    3516.93
    499.02,    -6.20,    3524.26
    500.02,    -6.24,    3531.56
    501.02,    -6.27,    3538.82
    502.02,    -6.30,    3546.03
    503.02,    -6.33,    3553.19
    504.02,    -6.35,    3560.30
    505.02,    -6.38,    3567.35
    506.02,    -6.41,    3574.34
    507.02,    -6.45,    3581.28
    508.02,    -6.48,    3588.17
    509.02,    -6.53,    3595.02
    510.02,    -6.57,    3601.84
    511.02,    -6.62,    3608.64
    512.02,    -6.67,    3615.42
    513.02,    -6.72,    3622.20
    514.02,    -6.77,    3628.99
    515.02,    -6.83,    3635.79
    516.02,    -6.88,    3642.62
    517.02,    -6.94,    3649.46
    518.02,    -7.00,    3656.35
    519.02,    -7.05,    3663.26
    520.02,    -7.11,    3670.22
    521.02,    -7.17,    3677.21
    522.02,    -7.23,    3684.23
    523.02,    -7.28,    3691.28
    524.02,    -7.34,    3698.36
    525.02,    -7.41,    3705.46
    526.02,    -7.47,    3712.58
    527.02,    -7.54,    3719.71
    528.02,    -7.60,    3726.85
    529.02,    -7.67,    3733.99
    530.02,    -7.73,    3741.14
    531.02,    -7.80,    3748.29
    532.02,    -7.87,    3755.44
    533.02,    -7.93,    3762.59
    534.02,    -7.99,    3769.74
    535.02,    -8.06,    3776.90
    536.02,    -8.12,    3784.05
    537.02,    -8.18,    3791.22
    538.02,    -8.24,    3798.40
    539.02,    -8.29,    3805.58
    540.02,    -8.35,    3812.79
    541.02,    -8.41,    3820.02
    542.02,    -8.46,    3827.27
    543.02,    -8.52,    3834.54
    544.02,    -8.58,    3841.83
    545.02,    -8.64,    3849.14
    546.02,    -8.70,    3856.48
    547.02,    -8.76,    3863.83
    548.02,    -8.82,    3871.19
    550.02,    -8.89,    3878.56
    551.02,    -8.96,    3885.94
    552.02,    -9.03,    3893.31
    553.02,    -9.10,    3900.66
    554.02,    -9.17,    3907.99
    555.02,    -9.24,    3915.30
    556.02,    -9.31,    3922.56
    557.02,    -9.38,    3929.78
    558.02,    -9.45,    3936.93
    559.02,    -9.53,    3944.03
    560.02,    -9.60,    3951.05
    561.02,    -9.67,    3957.99
    562.02,    -9.73,    3964.85
    563.02,    -9.80,    3971.62
    564.02,    -9.87,    3978.30
    565.02,    -9.93,    3984.89
    566.02,    -9.99,    3991.39
    567.02,    -10.05,    3997.81
    568.02,    -10.11,    4004.15
    569.02,    -10.17,    4010.43
    570.02,    -10.22,    4016.64
    571.02,    -10.27,    4022.81
    572.02,    -10.32,    4028.95
    573.02,    -10.37,    4035.08
    574.02,    -10.42,    4041.21
    575.02,    -10.47,    4047.36
    576.02,    -10.51,    4053.54
    577.02,    -10.56,    4059.77
    578.02,    -10.61,    4066.08
    579.02,    -10.66,    4072.46
    580.02,    -10.70,    4078.94
    581.02,    -10.75,    4085.52
    582.02,    -10.80,    4092.21
    583.02,    -10.86,    4099.01
    584.02,    -10.91,    4105.92
    585.02,    -10.97,    4112.94
    586.02,    -11.03,    4120.06
    587.02,    -11.09,    4127.26
    588.02,    -11.15,    4134.55
    589.02,    -11.22,    4141.89
    590.03,    -11.28,    4149.27
    591.02,    -11.35,    4156.66
    592.02,    -11.42,    4164.06
    593.02,    -11.48,    4171.43
    594.02,    -11.55,    4178.76
    595.02,    -11.61,    4186.02
    596.02,    -11.67,    4193.21
    597.02,    -11.73,    4200.30
    598.02,    -11.79,    4207.29
    599.02,    -11.85,    4214.17
    600.02,    -11.90,    4220.93
    601.02,    -11.96,    4227.58
    602.02,    -12.01,    4234.13
    603.02,    -12.06,    4240.58
    604.02,    -12.11,    4246.95
    605.02,    -12.16,    4253.25
    606.02,    -12.21,    4259.51
    607.02,    -12.26,    4265.75
    608.02,    -12.31,    4271.97
    609.02,    -12.36,    4278.21
    610.02,    -12.41,    4284.49
    611.02,    -12.47,    4290.82
    612.02,    -12.52,    4297.21
    613.02,    -12.58,    4303.69
    614.02,    -12.64,    4310.24
    615.02,    -12.69,    4316.89
    616.02,    -12.75,    4323.62
    617.02,    -12.81,    4330.44
    618.02,    -12.87,    4337.33
    619.02,    -12.94,    4344.28
    620.02,    -13.00,    4351.29
    621.02,    -13.06,    4358.33
    622.02,    -13.13,    4365.38
    623.02,    -13.19,    4372.43
    624.02,    -13.25,    4379.46
    625.02,    -13.32,    4386.46
    626.02,    -13.37,    4393.41
