time,temp (°C),alt (m),press (m)
    4.00,    10.67,    515.38,    957.66
    5.00,    10.59,    522.09,    956.89
    6.00,    10.52,    528.76,    956.12
    7.00,    10.45,    535.23,    955.38
    8.00,    10.38,    541.59,    954.65
    9.00,    10.32,    547.90,    953.93
    10.00,    10.25,    554.27,    953.20
    11.00,    10.19,    560.61,    952.47
    12.00,    10.12,    566.99,    951.74
    13.00,    10.06,    573.34,    951.01
    14.00,    10.00,    579.64,    950.29
    15.01,    9.94,    585.92,    949.57
    16.00,    9.87,    592.20,    948.86
    17.00,    9.81,    598.44,    948.14
    18.00,    9.75,    604.66,    947.43
    19.00,    9.69,    610.85,    946.73
    20.00,    9.63,    616.97,    946.03
    21.00,    9.57,    623.02,    945.34
    22.00,    9.52,    629.00,    944.66
    23.00,    9.46,    634.89,    943.99
    24.00,    9.40,    640.70,    943.33
    25.00,    9.34,    646.46,    942.67
    26.00,    9.29,    652.23,    942.02
    27.00,    9.23,    657.98,    941.37
    28.00,    9.18,    663.76,    940.71
    29.00,    9.12,    669.59,    940.05
    30.00,    9.07,    675.49,    939.38
    31.00,    9.01,    681.47,    938.70
    32.00,    8.95,    687.54,    938.01
    33.00,    8.90,    693.71,    937.31
    34.00,    8.84,    699.97,    936.61
    35.00,    8.78,    706.35,    935.88
    36.00,    8.72,    712.83,    935.15
    37.00,    8.66,    719.42,    934.41
    38.00,    8.59,    726.13,    933.65
    39.00,    8.53,    732.95,    932.88
    40.00,    8.47,    739.87,    932.10
    41.00,    8.40,    746.89,    931.31
    42.00,    8.34,    754.01,    930.51
    43.00,    8.27,    761.22,    929.69
    44.00,    8.20,    768.52,    928.87
    45.00,    8.13,    775.90,    928.04
    46.00,    8.07,    783.34,    927.21
    47.00,    8.00,    790.84,    926.36
    48.00,    7.92,    798.38,    925.52
    49.00,    7.85,    805.95,    924.67
    50.00,    7.78,    813.54,    923.82
    51.00,    7.70,    821.14,    922.97
    52.00,    7.62,    828.74,    922.12
    53.00,    7.55,    836.33,    921.27
    54.00,    7.47,    843.90,    920.42
    55.00,    7.39,    851.46,    919.58
    56.01,    7.31,    858.98,    918.74
    57.00,    7.24,    866.48,    917.90
    58.00,    7.16,    873.95,    917.07
    59.00,    7.08,    881.39,    916.24
    61.00,    7.01,    888.79,    915.41
    62.00,    6.94,    896.16,    914.60
    63.00,    6.86,    903.49,    913.78
    64.00,    6.79,    910.78,    912.97
    65.00,    6.72,    918.03,    912.17
    66.00,    6.66,    925.23,    911.37
    67.00,    6.59,    932.37,    910.57
    68.00,    6.52,    939.45,    909.79
    69.00,    6.45,    946.47,    909.01
    70.00,    6.39,    953.41,    908.24
    71.00,    6.32,    960.27,    907.48
    72.00,    6.26,    967.04,    906.73
    73.00,    6.20,    973.72,    906.00
    74.00,    6.14,    980.29,    905.27
    75.00,    6.08,    986.75,    904.56
    76.00,    6.02,    993.09,    903.86
    77.00,    5.97,    999.33,    903.17
    78.00,    5.92,    1005.46,    902.50
    79.00,    5.87,    1011.47,    901.83
    80.00,    5.82,    1017.38,    901.18
    81.00,    5.78,    1023.19,    900.54
    82.00,    5.74,    1028.91,    899.91
    83.00,    5.70,    1034.55,    899.29
    84.00,    5.66,    1040.12,    898.68
    85.00,    5.62,    1045.62,    898.08
    86.00,    5.59,    1051.06,    897.48
    87.00,    5.55,    1056.46,    896.89
    88.00,    5.51,    1061.82,    896.30
    89.00,    5.47,    1067.14,    895.72
    90.00,    5.43,    1072.43,    895.14
    91.00,    5.38,    1077.69,    894.57
    92.00,    5.34,    1082.91,    893.99
    93.00,    5.29,    1088.10,    893.43
    94.00,    5.25,    1093.25,    892.86
    95.00,    5.20,    1098.35,    892.31
    96.00,    5.16,    1103.41,    891.75
    97.01,    5.12,    1108.42,    891.21
    98.00,    5.07,    1113.38,    890.67
    99.00,    5.04,    1118.29,    890.13
    100.00,    5.00,    1123.14,    889.60
    101.00,    4.97,    1127.95,    889.08
    102.00,    4.94,    1132.73,    888.56
    103.00,    4.92,    1137.47,    888.04
    104.00,    4.90,    1142.21,    887.53
    105.00,    4.89,    1146.95,    887.01
    106.00,    4.88,    1151.72,    886.49
    107.00,    4.88,    1156.54,    885.97
    108.00,    4.87,    1161.42,    885.44
    109.00,    4.87,    1166.41,    884.90
    110.00,    4.87,    1171.51,    884.35
    111.00,    4.86,    1176.76,    883.78
    112.00,    4.85,    1182.16,    883.19
    113.00,    4.84,    1187.74,    882.59
    114.00,    4.83,    1193.50,    881.97
    115.00,    4.80,    1199.46,    881.32
    116.00,    4.77,    1205.62,    880.66
    117.00,    4.74,    1211.98,    879.97
    118.00,    4.70,    1218.54,    879.26
    119.00,    4.66,    1225.28,    878.54
    120.00,    4.61,    1232.19,    877.79
    121.00,    4.55,    1239.26,    877.03
    122.00,    4.50,    1246.47,    876.26
    123.00,    4.44,    1253.80,    875.47
    124.00,    4.39,    1261.23,    874.67
    125.00,    4.33,    1268.75,    873.86
    126.00,    4.27,    1276.33,    873.05
    127.00,    4.22,    1283.96,    872.23
    128.00,    4.16,    1291.63,    871.41
    129.00,    4.10,    1299.33,    870.59
    130.00,    4.04,    1307.06,    869.76
    131.00,    3.98,    1314.80,    868.93
    132.00,    3.91,    1322.56,    868.11
    133.00,    3.84,    1330.34,    867.28
    134.00,    3.77,    1338.14,    866.44
    135.00,    3.69,    1345.98,    865.61
    136.00,    3.61,    1353.85,    864.77
    137.00,    3.52,    1361.76,    863.93
    138.01,    3.43,    1369.73,    863.08
    139.00,    3.34,    1377.75,    862.23
    140.00,    3.26,    1385.84,    861.37
    141.00,    3.17,    1394.00,    860.50
    142.00,    3.09,    1402.23,    859.63
    143.00,    3.02,    1410.53,    858.75
    144.00,    2.95,    1418.90,    857.86
    145.00,    2.89,    1427.34,    856.97
    146.00,    2.83,    1435.83,    856.08
    147.00,    2.79,    1444.36,    855.17
    148.00,    2.75,    1452.94,    854.27
    149.00,    2.71,    1461.55,    853.36
    150.00,    2.67,    1470.17,    852.45
    151.00,    2.64,    1478.79,    851.55
    152.01,    2.59,    1487.39,    850.64
    153.00,    2.54,    1495.97,    849.74
    154.00,    2.49,    1504.50,    848.84
    155.00,    2.42,    1512.97,    847.96
    156.00,    2.35,    1521.38,    847.08
    157.00,    2.26,    1529.69,    846.20
    158.00,    2.17,    1537.91,    845.34
    159.00,    2.08,    1546.02,    844.50
    160.00,    1.99,    1554.01,    843.66
    161.00,    1.90,    1561.88,    842.84
    162.01,    1.83,    1569.62,    842.03
    163.00,    1.77,    1577.21,    841.24
    164.00,    1.73,    1584.67,    840.46
    165.01,    1.72,    1591.99,    839.70
    166.01,    1.73,    1599.16,    838.95
    167.01,    1.76,    1606.20,    838.22
    168.01,    1.82,    1613.10,    837.51
    169.01,    1.89,    1619.87,    836.81
    170.01,    1.98,    1626.52,    836.12
    171.01,    2.08,    1633.04,    835.44
    172.01,    2.18,    1639.46,    834.78
    173.01,    2.27,    1645.77,    834.13
    174.01,    2.36,    1651.99,    833.48
    175.01,    2.43,    1658.12,    832.85
    176.01,    2.49,    1664.18,    832.23
    177.01,    2.54,    1670.17,    831.61
    178.01,    2.56,    1676.10,    831.00
    179.01,    2.57,    1681.97,    830.40
    180.01,    2.56,    1687.80,    829.80
    181.01,    2.54,    1693.57,    829.21
    183.01,    2.51,    1699.30,    828.62
    184.01,    2.47,    1704.99,    828.04
    185.01,    2.43,    1710.62,    827.46
    186.01,    2.38,    1716.21,    826.89
    187.01,    2.33,    1721.74,    826.33
    188.01,    2.29,    1727.21,    825.77
    189.01,    2.24,    1732.61,    825.22
    190.01,    2.20,    1737.94,    824.67
    191.01,    2.16,    1743.19,    824.13
    192.01,    2.13,    1748.36,    823.61
    193.01,    2.09,    1753.44,    823.09
    194.01,    2.06,    1758.43,    822.58
    195.01,    2.02,    1763.32,    822.08
    196.01,    2.00,    1768.12,    821.59
    197.01,    1.97,    1772.83,    821.12
    198.01,    1.95,    1777.44,    820.65
    199.01,    1.93,    1781.97,    820.19
    200.01,    1.92,    1786.43,    819.73
    201.01,    1.91,    1790.81,    819.29
    202.01,    1.91,    1795.13,    818.85
    203.01,    1.90,    1799.40,    818.42
    204.01,    1.90,    1803.63,    817.99
    205.01,    1.90,    1807.84,    817.56
    206.01,    1.90,    1812.03,    817.14
    207.01,    1.90,    1816.21,    816.71
    208.01,    1.90,    1820.40,    816.29
    209.01,    1.90,    1824.61,    815.86
    210.01,    1.89,    1828.84,    815.44
    211.01,    1.89,    1833.10,    815.00
    212.01,    1.90,    1837.40,    814.57
    213.01,    1.91,    1841.74,    814.13
    214.01,    1.93,    1846.12,    813.69
    215.01,    1.96,    1850.55,    813.24
    216.01,    2.00,    1855.02,    812.79
    217.01,    2.06,    1859.53,    812.34
    218.01,    2.14,    1864.09,    811.88
    219.01,    2.23,    1868.69,    811.42
    220.01,    2.34,    1873.33,    810.95
    221.01,    2.46,    1878.00,    810.48
    222.01,    2.59,    1882.70,    810.01
    223.01,    2.72,    1887.43,    809.54
    224.01,    2.86,    1892.20,    809.06
    225.01,    2.99,    1896.99,    808.58
    226.01,    3.11,    1901.81,    808.10
    227.01,    3.23,    1906.66,    807.62
    228.01,    3.32,    1911.54,    807.13
    229.01,    3.41,    1916.45,    806.64
    230.01,    3.47,    1921.39,    806.15
    231.01,    3.52,    1926.36,    805.66
    232.01,    3.56,    1931.36,    805.16
    233.01,    3.58,    1936.40,    804.66
    234.02,    3.59,    1941.47,    804.16
    235.01,    3.59,    1946.57,    803.66
    236.01,    3.60,    1951.71,    803.15
    237.01,    3.60,    1956.87,    802.64
    238.01,    3.61,    1962.05,    802.12
    239.01,    3.62,    1967.26,    801.61
    240.01,    3.64,    1972.48,    801.09
    241.01,    3.67,    1977.70,    800.58
    242.01,    3.70,    1982.93,    800.06
    243.01,    3.74,    1988.14,    799.55
    244.01,    3.78,    1993.34,    799.04
    245.01,    3.83,    1998.52,    798.53
    246.01,    3.88,    2003.67,    798.02
    247.01,    3.93,    2008.78,    797.52
    248.01,    3.97,    2013.85,    797.02
    249.01,    4.01,    2018.88,    796.53
    250.01,    4.04,    2023.86,    796.04
    251.01,    4.06,    2028.80,    795.56
    252.01,    4.07,    2033.69,    795.08
    253.01,    4.08,    2038.54,    794.60
    254.01,    4.08,    2043.36,    794.13
    255.01,    4.07,    2048.15,    793.67
    256.01,    4.05,    2052.91,    793.20
    257.01,    4.04,    2057.67,    792.74
    258.01,    4.01,    2062.42,    792.27
    259.01,    3.99,    2067.19,    791.81
    260.01,    3.97,    2071.97,    791.34
    261.01,    3.94,    2076.78,    790.88
    262.01,    3.91,    2081.62,    790.40
    263.01,    3.89,    2086.51,    789.93
    264.01,    3.86,    2091.44,    789.45
    265.01,    3.83,    2096.42,    788.96
    266.01,    3.80,    2101.45,    788.48
    267.01,    3.77,    2106.54,    787.98
    268.01,    3.73,    2111.66,    787.48
    269.01,    3.70,    2116.84,    786.98
    270.01,    3.66,    2122.04,    786.48
    271.01,    3.61,    2127.27,    785.97
    272.01,    3.57,    2132.53,    785.46
    273.01,    3.52,    2137.78,    784.95
    274.01,    3.47,    2143.04,    784.44
    275.02,    3.42,    2148.29,    783.94
    276.01,    3.37,    2153.52,    783.43
    277.01,    3.32,    2158.72,    782.93
    278.01,    3.27,    2163.88,    782.43
    279.01,    3.22,    2169.01,    781.94
    280.01,    3.17,    2174.09,    781.45
    281.01,    3.12,    2179.11,    780.96
    282.01,    3.08,    2184.09,    780.48
    283.01,    3.04,    2189.02,    780.01
    284.01,    3.00,    2193.91,    779.54
    285.01,    2.96,    2198.75,    779.07
    286.01,    2.92,    2203.56,    778.61
    287.01,    2.88,    2208.34,    778.15
    288.01,    2.84,    2213.10,    777.69
    289.01,    2.80,    2217.84,    777.23
    290.01,    2.77,    2222.58,    776.78
    291.01,    2.73,    2227.32,    776.32
    292.01,    2.69,    2232.09,    775.87
    293.01,    2.65,    2236.87,    775.41
    294.01,    2.61,    2241.69,    774.94
    295.01,    2.57,    2246.55,    774.48
    296.01,    2.53,    2251.46,    774.01
    297.01,    2.48,    2256.43,    773.53
    298.01,    2.44,    2261.46,    773.05
    299.01,    2.40,    2266.55,    772.56
    300.01,    2.36,    2271.71,    772.07
    301.01,    2.31,    2276.95,    771.57
    302.01,    2.27,    2282.25,    771.06
    303.01,    2.22,    2287.64,    770.55
    305.01,    2.18,    2293.09,    770.03
    306.01,    2.13,    2298.61,    769.50
    307.01,    2.09,    2304.20,    768.97
    308.01,    2.04,    2309.85,    768.43
    309.01,    1.99,    2315.56,    767.89
    310.01,    1.94,    2321.32,    767.34
    311.01,    1.89,    2327.12,    766.79
    312.01,    1.84,    2332.96,    766.23
    313.01,    1.78,    2338.82,    765.68
    314.01,    1.73,    2344.70,    765.12
    315.01,    1.67,    2350.59,    764.56
    316.02,    1.62,    2356.49,    764.00
    317.01,    1.56,    2362.37,    763.44
    318.01,    1.51,    2368.25,    762.88
    319.01,    1.45,    2374.11,    762.33
    320.01,    1.40,    2379.95,    761.77
    321.01,    1.36,    2385.77,    761.23
    322.01,    1.31,    2391.56,    760.68
    323.01,    1.27,    2397.34,    760.13
    324.01,    1.23,    2403.10,    759.59
    325.01,    1.20,    2408.84,    759.05
    326.01,    1.16,    2414.57,    758.50
    327.01,    1.13,    2420.31,    757.96
    328.01,    1.10,    2426.06,    757.42
    329.01,    1.06,    2431.82,    756.88
    330.02,    1.03,    2437.61,    756.33
    331.01,    0.99,    2443.43,    755.79
    332.01,    0.95,    2449.29,    755.24
    333.01,    0.90,    2455.20,    754.68
    334.01,    0.86,    2461.15,    754.12
    335.01,    0.81,    2467.16,    753.56
    336.01,    0.76,    2473.23,    752.99
    337.01,    0.70,    2479.34,    752.41
    338.01,    0.64,    2485.51,    751.84
    339.01,    0.59,    2491.72,    751.25
    340.01,    0.53,    2497.96,    750.67
    341.01,    0.47,    2504.23,    750.08
    342.01,    0.41,    2510.52,    749.50
    343.01,    0.35,    2516.82,    748.91
    344.01,    0.29,    2523.12,    748.32
    345.01,    0.23,    2529.41,    747.73
    346.01,    0.17,    2535.67,    747.15
    347.01,    0.11,    2541.92,    746.57
    348.01,    0.06,    2548.14,    745.99
    349.01,    -0.00,    2554.33,    745.41
    350.01,    -0.06,    2560.49,    744.84
    351.01,    -0.11,    2566.63,    744.27
    352.01,    -0.16,    2572.74,    743.70
    353.01,    -0.21,    2578.84,    743.13
    354.01,    -0.25,    2584.93,    742.57
    355.01,    -0.30,    2591.02,    742.00
    356.01,    -0.34,    2597.12,    741.44
    357.01,    -0.38,    2603.24,    740.87
    358.01,    -0.41,    2609.39,    740.30
    359.01,    -0.45,    2615.57,    739.73
    360.01,    -0.48,    2621.80,    739.15
    361.01,    -0.51,    2628.07,    738.57
    362.01,    -0.54,    2634.39,    737.99
    363.01,    -0.57,    2640.77,    737.40
    364.01,    -0.61,    2647.18,    736.81
    365.01,    -0.64,    2653.65,    736.21
    366.01,    -0.68,    2660.14,    735.61
    367.01,    -0.72,    2666.66,    735.01
    368.01,    -0.76,    2673.21,    734.41
    369.01,    -0.80,    2679.75,    733.81
    370.01,    -0.85,    2686.29,    733.21
    371.02,    -0.90,    2692.82,    732.61
    372.01,    -0.96,    2699.31,    732.01
    373.01,    -1.01,    2705.76,    731.42
    374.01,    -1.07,    2712.15,    730.83
    375.01,    -1.14,    2718.49,    730.25
    376.01,    -1.20,    2724.75,    729.68
    377.01,    -1.26,    2730.95,    729.11
    378.01,    -1.33,    2737.07,    728.55
    379.01,    -1.39,    2743.12,    728.00
    380.01,    -1.46,    2749.10,    727.45
    381.01,    -1.52,    2755.02,    726.91
    382.01,    -1.58,    2760.88,    726.38
    383.01,    -1.63,    2766.69,    725.85
    384.01,    -1.69,    2772.46,    725.32
    385.01,    -1.74,    2778.21,    724.80
    386.01,    -1.78,    2783.95,    724.28
    387.01,    -1.83,    2789.69,    723.75
    388.01,    -1.87,    2795.45,    723.23
    389.01,    -1.91,    2801.23,    722.70
    390.01,    -1.94,    2807.05,    722.18
    391.01,    -1.98,    2812.92,    721.64
    392.01,    -2.02,    2818.85,    721.10
    393.01,    -2.05,    2824.85,    720.56
    394.01,    -2.09,    2830.91,    720.01
    395.01,    -2.13,    2837.04,    719.46
    396.01,    -2.18,    2843.24,    718.89
    397.01,    -2.22,    2849.50,    718.33
    398.01,    -2.27,    2855.83,    717.76
    399.01,    -2.33,    2862.21,    717.18
    400.01,    -2.39,    2868.64,    716.60
    401.01,    -2.45,    2875.10,    716.02
    402.01,    -2.51,    2881.60,    715.43
    403.01,    -2.58,    2888.11,    714.84
    404.01,    -2.65,    2894.62,    714.26
    405.01,    -2.72,    2901.14,    713.67
    406.01,    -2.78,    2907.65,    713.08
    407.01,    -2.85,    2914.14,    712.50
    408.01,    -2.92,    2920.62,    711.92
    409.01,    -2.98,    2927.08,    711.34
    410.01,    -3.04,    2933.51,    710.76
    411.01,    -3.10,    2939.93,    710.18
    412.02,    -3.15,    2946.34,    709.61
    413.01,    -3.20,    2952.75,    709.04
    414.01,    -3.24,    2959.16,    708.46
    415.01,    -3.27,    2965.58,    707.89
    416.01,    -3.30,    2972.02,    707.31
    417.01,    -3.32,    2978.50,    706.73
    418.01,    -3.34,    2985.01,    706.15
    419.01,    -3.35,    2991.57,    705.56
    420.01,    -3.35,    2998.19,    704.97
    421.01,    -3.35,    3004.86,    704.38
    422.01,    -3.35,    3011.58,    703.78
    423.01,    -3.35,    3018.36,    703.18
    424.01,    -3.34,    3025.19,    702.57
    425.01,    -3.34,    3032.07,    701.96
    427.01,    -3.34,    3038.98,    701.35
    428.01,    -3.34,    3045.91,    700.73
    429.01,    -3.34,    3052.86,    700.12
    430.01,    -3.34,    3059.81,    699.51
    431.01,    -3.35,    3066.75,    698.89
    432.01,    -3.36,    3073.67,    698.28
    433.01,    -3.38,    3080.55,    697.67
    434.01,    -3.39,    3087.38,    697.07
    435.01,    -3.40,    3094.16,    696.47
    436.01,    -3.42,    3100.88,    695.88
    437.01,    -3.43,    3107.54,    695.30
    438.01,    -3.44,    3114.13,    694.72
    439.01,    -3.45,    3120.67,    694.14
    440.01,    -3.46,    3127.14,    693.58
    441.01,    -3.46,    3133.56,    693.01
    442.01,    -3.46,    3139.93,    692.46
    443.01,    -3.47,    3146.27,    691.90
    444.01,    -3.47,    3152.58,    691.35
    445.01,    -3.47,    3158.88,    690.80
    446.01,    -3.48,    3165.17,    690.25
    447.01,    -3.49,    3171.46,    689.70
    448.01,    -3.51,    3177.77,    689.15
    449.01,    -3.54,    3184.10,    688.60
    450.01,    -3.57,    3190.45,    688.04
    451.01,    -3.60,    3196.84,    687.49
    452.01,    -3.64,    3203.27,    686.93
    453.02,    -3.69,    3209.73,    686.37
    454.01,    -3.74,    3216.23,    685.80
    455.01,    -3.79,    3222.76,    685.24
    456.01,    -3.85,    3229.34,    684.67
    457.01,    -3.91,    3235.94,    684.09
    458.01,    -3.97,    3242.58,    683.52
    459.01,    -4.03,    3249.24,    682.94
    460.01,    -4.09,    3255.93,    682.36
    461.01,    -4.15,    3262.63,    681.78
    462.01,    -4.21,    3269.36,    681.20
    463.01,    -4.26,    3276.09,    680.62
    464.01,    -4.32,    3282.83,    680.04
    465.01,    -4.38,    3289.58,    679.46
    466.01,    -4.44,    3296.32,    678.88
    467.02,    -4.50,    3303.07,    678.30
    468.01,    -4.56,    3309.81,    677.72
    469.01,    -4.62,    3316.54,    677.14
    470.01,    -4.68,    3323.26,    676.56
    471.01,    -4.74,    3329.98,    675.98
    472.01,    -4.80,    3336.67,    675.41
