time,temp (°C),alt (m),press (m)
    2.00,    3.19,    504.31,    955.30
    3.00,    3.51,    510.28,    954.59
    4.00,    3.78,    515.87,    953.94
    5.00,    4.04,    521.42,    953.29
    6.00,    4.27,    526.73,    952.66
    7.00,    4.46,    531.98,    952.05
    8.00,    4.62,    537.23,    951.44
    9.00,    4.77,    542.50,    950.82
    10.00,    4.90,    547.76,    950.21
    11.00,    5.02,    552.98,    949.60
    12.00,    5.12,    558.25,    948.99
    13.00,    5.21,    563.50,    948.38
    14.00,    5.27,    568.75,    947.77
    15.00,    5.31,    574.01,    947.16
    16.00,    5.34,    579.27,    946.55
    17.00,    5.35,    584.55,    945.94
    18.00,    5.34,    589.84,    945.33
    19.00,    5.33,    595.10,    944.72
    20.00,    5.32,    600.32,    944.12
    21.00,    5.30,    605.52,    943.52
    22.00,    5.29,    610.71,    942.92
    23.00,    5.29,    615.89,    942.32
    24.00,    5.29,    621.11,    941.72
    25.00,    5.29,    626.37,    941.12
    26.00,    5.30,    631.63,    940.51
    27.00,    5.32,    636.92,    939.90
    28.00,    5.33,    642.25,    939.29
    29.00,    5.34,    647.61,    938.67
    30.00,    5.35,    653.01,    938.05
    31.00,    5.35,    658.46,    937.43
    32.00,    5.35,    663.94,    936.80
    33.00,    5.34,    669.45,    936.17
    34.00,    5.33,    674.98,    935.54
    35.00,    5.32,    680.54,    934.90
    36.00,    5.30,    686.13,    934.26
    37.00,    5.28,    691.72,    933.62
    38.00,    5.26,    697.32,    932.98
    39.00,    5.24,    702.93,    932.34
    40.00,    5.21,    708.54,    931.70
    41.00,    5.18,    714.15,    931.06
    42.01,    5.15,    719.77,    930.42
    43.00,    5.12,    725.38,    929.78
    44.00,    5.08,    731.00,    929.14
    45.00,    5.05,    736.63,    928.50
    46.00,    5.01,    742.26,    927.86
    47.00,    4.97,    747.90,    927.22
    48.00,    4.94,    753.54,    926.58
    49.00,    4.90,    759.21,    925.94
    50.00,    4.87,    764.89,    925.30
    51.00,    4.83,    770.59,    924.65
    52.00,    4.80,    776.31,    924.00
    53.00,    4.77,    782.05,    923.35
    54.00,    4.74,    787.82,    922.70
    55.00,    4.71,    793.62,    922.04
    56.01,    4.68,    799.44,    921.39
    57.00,    4.65,    805.28,    920.72
    58.00,    4.62,    811.15,    920.06
    59.00,    4.59,    817.03,    919.40
    60.00,    4.55,    822.92,    918.74
    61.00,    4.51,    828.82,    918.07
    63.00,    4.47,    834.71,    917.41
    64.00,    4.42,    840.60,    916.74
    65.00,    4.37,    846.48,    916.08
    66.00,    4.32,    852.33,    915.43
    67.00,    4.26,    858.16,    914.77
    68.00,    4.21,    863.95,    914.12
    69.00,    4.15,    869.71,    913.47
    70.00,    4.09,    875.43,    912.83
    71.00,    4.04,    881.10,    912.20
    72.00,    3.98,    886.74,    911.56
    73.00,    3.93,    892.34,    910.94
    74.00,    3.88,    897.90,    910.32
    75.00,    3.84,    903.43,    909.70
    76.00,    3.79,    908.93,    909.08
    77.00,    3.75,    914.40,    908.47
    78.00,    3.71,    919.86,    907.86
    79.00,    3.67,    925.31,    907.25
    80.00,    3.64,    930.75,    906.64
    81.00,    3.60,    936.19,    906.04
    82.00,    3.57,    941.63,    905.43
    83.01,    3.53,    947.07,    904.82
    84.00,    3.49,    952.51,    904.22
    85.00,    3.46,    957.97,    903.61
    86.00,    3.42,    963.42,    903.00
    87.00,    3.39,    968.88,    902.40
    88.00,    3.35,    974.33,    901.79
    89.00,    3.32,    979.78,    901.19
    90.00,    3.28,    985.22,    900.58
    91.00,    3.25,    990.63,    899.98
    92.00,    3.21,    996.03,    899.38
    93.00,    3.18,    1001.40,    898.79
    94.00,    3.15,    1006.73,    898.20
    95.00,    3.13,    1012.03,    897.61
    96.00,    3.10,    1017.30,    897.03
    97.01,    3.08,    1022.53,    896.45
    98.00,    3.05,    1027.72,    895.88
    99.00,    3.03,    1032.88,    895.31
    100.00,    3.01,    1038.02,    894.74
    101.00,    2.99,    1043.12,    894.18
    102.00,    2.97,    1048.21,    893.62
    103.00,    2.95,    1053.29,    893.06
    104.00,    2.93,    1058.35,    892.50
    105.00,    2.92,    1063.42,    891.94
    106.00,    2.90,    1068.49,    891.38
    107.00,    2.88,    1073.57,    890.82
    108.00,    2.86,    1078.66,    890.26
    109.00,    2.84,    1083.77,    889.70
    110.00,    2.83,    1088.89,    889.14
    111.00,    2.81,    1094.03,    888.58
    112.00,    2.79,    1099.18,    888.01
    113.00,    2.77,    1104.34,    887.45
    114.00,    2.76,    1109.51,    886.88
    115.00,    2.74,    1114.69,    886.31
    116.00,    2.72,    1119.86,    885.75
    117.00,    2.70,    1125.02,    885.18
    118.00,    2.68,    1130.17,    884.62
    119.00,    2.66,    1135.30,    884.06
    120.00,    2.64,    1140.40,    883.50
    121.00,    2.62,    1145.47,    882.95
    122.00,    2.59,    1150.50,    882.40
    123.00,    2.57,    1155.51,    881.86
    124.00,    2.54,    1160.47,    881.31
    125.00,    2.51,    1165.40,    880.78
    126.00,    2.48,    1170.30,    880.25
    127.00,    2.44,    1175.16,    879.72
    128.00,    2.40,    1180.00,    879.19
    129.00,    2.37,    1184.81,    878.67
    130.00,    2.33,    1189.61,    878.15
    131.00,    2.29,    1194.39,    877.63
    132.00,    2.24,    1199.16,    877.11
    133.00,    2.20,    1203.94,    876.59
    134.00,    2.16,    1208.72,    876.07
    135.00,    2.12,    1213.51,    875.55
    136.00,    2.08,    1218.31,    875.03
    137.00,    2.05,    1223.13,    874.51
    138.01,    2.01,    1227.96,    873.99
    139.00,    1.99,    1232.82,    873.46
    140.00,    1.96,    1237.70,    872.93
    141.00,    1.94,    1242.60,    872.41
    142.00,    1.92,    1247.52,    871.87
    143.00,    1.92,    1252.47,    871.34
    144.00,    1.92,    1257.45,    870.80
    145.00,    1.92,    1262.44,    870.26
    146.00,    1.93,    1267.47,    869.72
    147.00,    1.95,    1272.52,    869.18
    148.00,    1.98,    1277.61,    868.63
    149.00,    2.00,    1282.73,    868.08
    150.00,    2.03,    1287.90,    867.52
    151.00,    2.06,    1293.10,    866.97
    152.00,    2.09,    1298.35,    866.40
    153.00,    2.11,    1303.65,    865.83
    154.00,    2.13,    1309.00,    865.26
    155.00,    2.13,    1314.40,    864.68
    156.00,    2.13,    1319.87,    864.10
    157.00,    2.12,    1325.38,    863.51
    158.00,    2.11,    1330.96,    862.91
    159.00,    2.08,    1336.58,    862.31
    160.00,    2.04,    1342.25,    861.71
    161.00,    2.00,    1347.96,    861.10
    162.00,    1.96,    1353.71,    860.48
    163.00,    1.91,    1359.49,    859.87
    164.00,    1.86,    1365.29,    859.25
    165.00,    1.80,    1371.10,    858.63
    166.00,    1.76,    1376.91,    858.01
    167.01,    1.71,    1382.73,    857.39
    168.00,    1.66,    1388.53,    856.78
    169.01,    1.62,    1394.33,    856.16
    170.01,    1.57,    1400.11,    855.55
    171.00,    1.53,    1405.87,    854.94
    172.01,    1.49,    1411.61,    854.33
    173.01,    1.45,    1417.34,    853.72
    174.01,    1.41,    1423.06,    853.11
    175.01,    1.38,    1428.77,    852.51
    176.01,    1.34,    1434.49,    851.91
    177.01,    1.30,    1440.21,    851.30
    178.01,    1.26,    1445.95,    850.69
    179.01,    1.22,    1451.70,    850.08
    180.01,    1.19,    1457.49,    849.47
    181.01,    1.16,    1463.30,    848.86
    182.01,    1.13,    1469.15,    848.24
    183.01,    1.10,    1475.03,    847.62
    184.01,    1.07,    1480.94,    847.00
    185.01,    1.05,    1486.88,    846.38
    186.01,    1.03,    1492.84,    845.75
    187.01,    1.01,    1498.81,    845.12
    189.01,    0.99,    1504.78,    844.50
    190.01,    0.97,    1510.73,    843.87
    191.01,    0.95,    1516.65,    843.25
    192.01,    0.92,    1522.52,    842.63
    193.01,    0.89,    1528.34,    842.03
    194.01,    0.86,    1534.08,    841.42
    195.01,    0.83,    1539.73,    840.83
    196.01,    0.79,    1545.29,    840.25
    197.01,    0.75,    1550.74,    839.68
    198.01,    0.71,    1556.08,    839.12
    199.01,    0.66,    1561.30,    838.58
    200.01,    0.62,    1566.42,    838.05
    201.01,    0.57,    1571.42,    837.52
    202.01,    0.52,    1576.33,    837.01
    203.01,    0.48,    1581.14,    836.51
    204.01,    0.44,    1585.88,    836.01
    205.01,    0.39,    1590.56,    835.53
    206.01,    0.35,    1595.20,    835.05
    207.01,    0.31,    1599.81,    834.57
    208.01,    0.28,    1604.40,    834.09
    209.01,    0.25,    1609.00,    833.61
    210.01,    0.22,    1613.63,    833.13
    211.01,    0.19,    1618.29,    832.64
    212.01,    0.17,    1623.01,    832.16
    213.01,    0.15,    1627.78,    831.66
    214.01,    0.13,    1632.61,    831.16
    215.01,    0.12,    1637.52,    830.65
    216.01,    0.11,    1642.50,    830.14
    217.01,    0.10,    1647.55,    829.61
    218.01,    0.10,    1652.67,    829.08
    219.01,    0.09,    1657.85,    828.55
    220.02,    0.09,    1663.09,    828.01
    221.01,    0.09,    1668.37,    827.46
    222.01,    0.08,    1673.70,    826.91
    223.01,    0.08,    1679.06,    826.36
    224.01,    0.08,    1684.45,    825.80
    225.01,    0.07,    1689.85,    825.25
    226.01,    0.06,    1695.26,    824.69
    227.01,    0.04,    1700.68,    824.13
    228.01,    0.03,    1706.11,    823.57
    229.01,    0.01,    1711.55,    823.02
    230.01,    -0.02,    1716.99,    822.46
    231.01,    -0.05,    1722.45,    821.90
    232.01,    -0.08,    1727.93,    821.33
    233.01,    -0.12,    1733.43,    820.77
    234.02,    -0.16,    1738.96,    820.20
    235.01,    -0.20,    1744.54,    819.63
    236.01,    -0.24,    1750.17,    819.06
    237.01,    -0.29,    1755.86,    818.47
    238.01,    -0.33,    1761.62,    817.89
    239.01,    -0.37,    1767.44,    817.29
    240.01,    -0.41,    1773.34,    816.69
    241.01,    -0.45,    1779.32,    816.08
    242.01,    -0.48,    1785.37,    815.46
    243.01,    -0.50,    1791.50,    814.84
    244.01,    -0.52,    1797.69,    814.21
    245.01,    -0.53,    1803.95,    813.57
    246.01,    -0.52,    1810.26,    812.93
    247.01,    -0.51,    1816.61,    812.28
    248.01,    -0.50,    1823.00,    811.63
    249.01,    -0.47,    1829.41,    810.98
    250.01,    -0.44,    1835.82,    810.33
    251.01,    -0.40,    1842.23,    809.68
    252.01,    -0.36,    1848.62,    809.04
    253.01,    -0.32,    1854.99,    808.39
    254.01,    -0.28,    1861.33,    807.75
    255.01,    -0.25,    1867.62,    807.12
    256.01,    -0.22,    1873.86,    806.49
    257.01,    -0.20,    1880.06,    805.87
    258.01,    -0.18,    1886.20,    805.25
    259.01,    -0.17,    1892.30,    804.63
    260.01,    -0.17,    1898.35,    804.03
    261.02,    -0.18,    1904.35,    803.42
    262.01,    -0.19,    1910.33,    802.82
    263.01,    -0.22,    1916.27,    802.23
    264.01,    -0.24,    1922.19,    801.63
    265.01,    -0.28,    1928.10,    801.04
    266.01,    -0.31,    1934.00,    800.45
    267.01,    -0.35,    1939.90,    799.86
    268.01,    -0.39,    1945.80,    799.27
    269.01,    -0.44,    1951.72,    798.68
    270.01,    -0.48,    1957.65,    798.09
    271.01,    -0.52,    1963.60,    797.49
    272.01,    -0.56,    1969.56,    796.90
    273.01,    -0.61,    1975.54,    796.30
    274.01,    -0.65,    1981.53,    795.71
    275.02,    -0.69,    1987.53,    795.11
    276.01,    -0.74,    1993.54,    794.51
    277.01,    -0.78,    1999.55,    793.91
    278.01,    -0.82,    2005.56,    793.31
    279.01,    -0.87,    2011.56,    792.72
    280.01,    -0.92,    2017.55,    792.12
    281.01,    -0.96,    2023.53,    791.53
    282.01,    -1.01,    2029.48,    790.94
    283.01,    -1.06,    2035.40,    790.35
    284.01,    -1.11,    2041.30,    789.77
    285.01,    -1.16,    2047.17,    789.19
    286.01,    -1.21,    2053.01,    788.61
    287.01,    -1.26,    2058.81,    788.03
    288.01,    -1.32,    2064.59,    787.46
    289.01,    -1.37,    2070.33,    786.90
    290.01,    -1.43,    2076.04,    786.33
    291.01,    -1.48,    2081.73,    785.77
    292.01,    -1.53,    2087.39,    785.21
    293.01,    -1.58,    2093.02,    784.66
    294.01,    -1.63,    2098.64,    784.10
    295.01,    -1.68,    2104.24,    783.55
    296.01,    -1.73,    2109.82,    783.00
    297.01,    -1.78,    2115.38,    782.45
    298.01,    -1.83,    2120.94,    781.91
    299.01,    -1.88,    2126.49,    781.36
    300.01,    -1.93,    2132.03,    780.82
    301.01,    -1.98,    2137.57,    780.27
    302.01,    -2.03,    2143.11,    779.73
    303.01,    -2.08,    2148.66,    779.19
    304.01,    -2.13,    2154.21,    778.64
    305.01,    -2.18,    2159.77,    778.10
    306.01,    -2.23,    2165.35,    777.55
    307.01,    -2.29,    2170.94,    777.00
    308.01,    -2.34,    2176.55,    776.45
    309.01,    -2.39,    2182.19,    775.90
    310.01,    -2.44,    2187.84,    775.35
    311.01,    -2.50,    2193.52,    774.79
    312.01,    -2.55,    2199.23,    774.24
    313.01,    -2.60,    2204.96,    773.68
    315.01,    -2.64,    2210.72,    773.12
    316.02,    -2.69,    2216.51,    772.55
    317.01,    -2.74,    2222.31,    771.99
    318.01,    -2.79,    2228.14,    771.42
    319.01,    -2.84,    2233.99,    770.85
    320.01,    -2.89,    2239.85,    770.28
    321.01,    -2.94,    2245.73,    769.71
    322.01,    -2.99,    2251.62,    769.14
    323.01,    -3.05,    2257.52,    768.56
    324.01,    -3.11,    2263.43,    767.99
    325.01,    -3.16,    2269.34,    767.42
    326.01,    -3.22,    2275.26,    766.84
    327.01,    -3.28,    2281.18,    766.27
    328.01,    -3.34,    2287.11,    765.69
    329.01,    -3.40,    2293.04,    765.12
    330.01,    -3.46,    2298.99,    764.54
    331.01,    -3.51,    2304.95,    763.97
    332.01,    -3.57,    2310.92,    763.39
    333.01,    -3.62,    2316.92,    762.81
    334.01,    -3.67,    2322.94,    762.23
    335.01,    -3.72,    2329.00,    761.65
    336.01,    -3.77,    2335.09,    761.06
    337.01,    -3.82,    2341.22,    760.47
    338.01,    -3.86,    2347.40,    759.87
    339.01,    -3.91,    2353.62,    759.27
    340.01,    -3.96,    2359.89,    758.67
    341.01,    -4.01,    2366.20,    758.06
    342.01,    -4.05,    2372.56,    757.45
    343.01,    -4.11,    2378.97,    756.84
    344.01,    -4.16,    2385.41,    756.22
    345.01,    -4.22,    2391.89,    755.60
    346.01,    -4.27,    2398.39,    754.98
    347.01,    -4.33,    2404.90,    754.35
    348.01,    -4.39,    2411.43,    753.73
    349.01,    -4.45,    2417.95,    753.10
    350.01,    -4.51,    2424.45,    752.48
    351.01,    -4.58,    2430.93,    751.86
    352.01,    -4.64,    2437.38,    751.25
    353.01,    -4.70,    2443.77,    750.64
    354.01,    -4.77,    2450.12,    750.03
    355.01,    -4.83,    2456.41,    749.43
    356.01,    -4.89,    2462.63,    748.84
    357.02,    -4.95,    2468.78,    748.25
    358.01,    -5.00,    2474.86,    747.67
    359.01,    -5.06,    2480.88,    747.10
    360.01,    -5.12,    2486.84,    746.54
    361.01,    -5.18,    2492.73,    745.97
    362.01,    -5.23,    2498.58,    745.42
    363.01,    -5.29,    2504.39,    744.87
    364.01,    -5.35,    2510.16,    744.32
    365.01,    -5.40,    2515.93,    743.77
    366.01,    -5.46,    2521.68,    743.23
    367.01,    -5.51,    2527.44,    742.68
    368.01,    -5.57,    2533.22,    742.14
    369.01,    -5.63,    2539.03,    741.59
    370.01,    -5.68,    2544.88,    741.03
    371.01,    -5.74,    2550.78,    740.48
    372.01,    -5.79,    2556.73,    739.91
    373.01,    -5.85,    2562.73,    739.35
    374.01,    -5.91,    2568.80,    738.77
    375.01,    -5.96,    2574.93,    738.20
    376.01,    -6.02,    2581.12,    737.61
    377.01,    -6.08,    2587.37,    737.02
    378.01,    -6.13,    2593.66,    736.43
    379.01,    -6.19,    2599.99,    735.84
    380.01,    -6.25,    2606.36,    735.24
    381.01,    -6.31,    2612.75,    734.64
    382.01,    -6.36,    2619.15,    734.04
    383.01,    -6.42,    2625.55,    733.44
    384.01,    -6.48,    2631.93,    732.84
    385.01,    -6.54,    2638.29,    732.24
    386.01,    -6.60,    2644.63,    731.65
    387.01,    -6.66,    2650.91,    731.06
    388.01,    -6.72,    2657.15,    730.47
    389.01,    -6.77,    2663.33,    729.90
    390.01,    -6.83,    2669.45,    729.33
    391.01,    -6.89,    2675.51,    728.76
    392.01,    -6.94,    2681.50,    728.20
    393.01,    -7.00,    2687.42,    727.65
    394.01,    -7.05,    2693.29,    727.10
    395.01,    -7.10,    2699.10,    726.56
    396.01,    -7.16,    2704.86,    726.02
    397.01,    -7.21,    2710.58,    725.49
    398.02,    -7.26,    2716.26,    724.96
    399.01,    -7.31,    2721.92,    724.43
    400.01,    -7.35,    2727.57,    723.91
    401.01,    -7.40,    2733.22,    723.38
    402.01,    -7.45,    2738.87,    722.86
    403.01,    -7.49,    2744.53,    722.33
    404.01,    -7.53,    2750.21,    721.81
    405.01,    -7.58,    2755.92,    721.28
    406.01,    -7.62,    2761.67,    720.75
    407.01,    -7.66,    2767.44,    720.21
    408.01,    -7.71,    2773.25,    719.67
    409.01,    -7.75,    2779.10,    719.13
    410.01,    -7.79,    2784.97,    718.59
    411.01,    -7.84,    2790.86,    718.05
    412.02,    -7.89,    2796.78,    717.50
    413.01,    -7.94,    2802.70,    716.95
    414.01,    -7.99,    2808.62,    716.41
    415.01,    -8.05,    2814.54,    715.86
    416.01,    -8.10,    2820.44,    715.32
    417.01,    -8.15,    2826.31,    714.78
    418.01,    -8.20,    2832.16,    714.24
    419.01,    -8.25,    2837.97,    713.71
    420.01,    -8.30,    2843.74,    713.18
    421.01,    -8.34,    2849.46,    712.65
    422.01,    -8.38,    2855.15,    712.13
    423.01,    -8.41,    2860.79,    711.61
    424.01,    -8.43,    2866.39,    711.10
    425.01,    -8.45,    2871.95,    710.59
    426.01,    -8.47,    2877.48,    710.08
    427.01,    -8.48,    2882.99,    709.58
    428.01,    -8.49,    2888.47,    709.08
    429.01,    -8.50,    2893.94,    708.58
    430.01,    -8.51,    2899.40,    708.08
    431.01,    -8.53,    2904.86,    707.58
    432.01,    -8.54,    2910.33,    707.08
    433.01,    -8.56,    2915.80,    706.58
    434.01,    -8.59,    2921.29,    706.08
    435.01,    -8.62,    2926.79,    705.58
    436.01,    -8.66,    2932.30,    705.08
    437.01,    -8.70,    2937.83,    704.58
    438.01,    -8.75,    2943.37,    704.07
    440.01,    -8.81,    2948.92,    703.57
    441.01,    -8.86,    2954.48,    703.06
    442.01,    -8.92,    2960.04,    702.56
    443.01,    -8.98,    2965.60,    702.05
    444.01,    -9.04,    2971.16,    701.55
    445.01,    -9.10,    2976.71,    701.05
    446.01,    -9.15,    2982.25,    700.55
    447.01,    -9.20,    2987.77,    700.05
    448.01,    -9.24,    2993.29,    699.55
    449.01,    -9.28,    2998.79,    699.05
    450.01,    -9.32,    3004.28,    698.55
    451.01,    -9.34,    3009.77,    698.06
    452.01,    -9.37,    3015.26,    697.56
    453.02,    -9.39,    3020.75,    697.07
    454.01,    -9.41,    3026.26,    696.57
    455.01,    -9.43,    3031.78,    696.07
    456.01,    -9.44,    3037.33,    695.57
    457.01,    -9.46,    3042.90,    695.07
    458.01,    -9.48,    3048.52,    694.57
    459.01,    -9.51,    3054.17,    694.06
    460.01,    -9.53,    3059.88,    693.55
    461.01,    -9.56,    3065.63,    693.03
    462.01,    -9.60,    3071.43,    692.51
    463.01,    -9.63,    3077.28,    691.98
    464.01,    -9.68,    3083.18,    691.46
    465.01,    -9.72,    3089.12,    690.92
    466.01,    -9.77,    3095.10,    690.39
    467.01,    -9.82,    3101.11,    689.85
    468.01,    -9.87,    3107.15,    689.31
